32.23623737, 14.87531512, 5.51815186, 6.67832314, 15.70111461, 16.09891301, 16.68082732, 37.65932819
33.11230889, 21.96645169, 5.33151011, 5.62361094, 18.55262785, 9.59035974, 15.49354704, 37.09582187
49.94722214, 27.94771905, 27.16477499, 13.55636382, 22.28957155, 13.93646297, 19.64433761, 47.53551304
64.45754417, 29.42405479, 27.95129693, 14.08722826, 28.22011694, 22.78486340, 20.83446664, 46.91135257
65.15193781, 34.22791259, 14.91643389, 9.22090017, 28.19441434, 22.89323044, 19.32550129, 42.53057724
63.70282568, 37.38616054, 18.92353033, 10.54988152, 24.02758831, 18.47498309, 18.96246292, 48.06297952
58.43757353, 30.77417749, 15.35578067, 9.06642157, 27.90967574, 19.24707770, 13.57479282, 42.93658114
55.61497101, 20.44810505, 8.01093003, 6.68019461, 26.66317685, 18.36028322, 20.76234572, 37.03241823
48.80394451, 21.48255106, 5.90127105, 5.75543222, 24.31871707, 18.52903128, 24.30380629, 41.29376466
40.72038801, 19.59272824, 4.76707457, 5.03736042, 21.32252330, 15.71861953, 16.22575114, 36.26637561
37.85102376, 13.42479050, 4.87852437, 4.57165178, 16.00078123, 11.19151464, 13.66930869, 25.77304794
30.31088913, 15.08724627, 4.58802790, 4.09572948, 17.01763791, 16.79434429, 14.44731809, 33.02612602
29.87013559, 14.38141161, 3.81116780, 4.82959626, 18.91097565, 17.02424741, 12.80039062, 36.93947753
26.47357173, 13.59595528, 4.06509532, 4.90153037, 18.88186961, 11.68332145, 13.23631369, 32.17685504
22.38191234, 14.77413280, 3.61939221, 3.50356961, 19.66278210, 11.21940284, 13.66839420, 28.85567535
26.48206941, 13.11106403, 3.39116499, 4.17133072, 17.90251379, 9.78391537, 13.72133375, 31.83472946
28.34254752, 19.95808107, 4.40170422, 5.18411034, 15.59887816, 10.69579357, 16.07093650, 37.73857443
21.27733536, 20.71231518, 4.92442890, 5.58793343, 18.78962480, 12.40463623, 14.38054241, 33.03369492
15.44020725, 15.57321418, 6.61059755, 17.27570548, 44.36862630, 17.23658899, 13.37348122, 29.64287435
17.31545552, 21.91004336, 9.79540709, 25.89642833, 60.97335484, 21.70598996, 16.48863245, 33.28024940
20.32178634, 25.80261615, 8.76070773, 21.21379268, 52.18404929, 20.12461180, 17.66988964, 27.94503534
38.72951071, 33.21182018, 6.45174395, 10.18577439, 35.23669962, 19.40554045, 18.54925875, 29.44571276
46.20768334, 41.17827097, 6.72867000, 11.50543350, 40.50493797, 18.53510183, 20.51950292, 34.88731861
41.00640194, 37.63641853, 5.14781507, 11.53581380, 41.72439334, 13.29849616, 19.71357400, 32.17763198
36.01943920, 26.70252797, 4.69574275, 10.04241007, 36.66094652, 12.87924687, 15.33704665, 26.59511233
25.20218245, 19.70025381, 4.52493094, 9.47496702, 36.61318069, 17.60681686, 11.94152419, 20.79362883
18.57081043, 23.62519841, 3.81772183, 6.57267069, 28.84180993, 15.10711753, 8.14094589, 14.50086204
23.54729284, 37.20450242, 4.32723930, 4.46094160, 20.72739733, 12.00833044, 8.95404936, 18.78962480
31.28737765, 49.74761301, 5.36656315, 6.54025993, 19.66278210, 14.62104647, 11.99374837, 26.73434121
31.79308101, 47.06113046, 5.21296461, 6.55171733, 20.54628920, 15.38343265, 13.55451954, 27.22407023
27.48090246, 39.51202349, 4.84767986, 5.09901951, 21.80137610, 19.10562744, 15.81059771, 22.30919093
29.81861834, 39.29217479, 5.00749438, 5.19855749, 22.41929972, 18.69759343, 16.98675955, 23.26478025
31.74507836, 48.02707570, 5.31272058, 4.46374282, 24.99699982, 18.57350263, 15.39967532, 27.26444571
31.77695706, 50.77130095, 5.61916364, 4.87339717, 29.83915213, 18.97498353, 12.70137788, 26.46601594
33.16888602, 50.70626194, 6.20483682, 5.21296461, 30.61943827, 15.55393841, 13.34634782, 25.92103393
29.91863967, 57.41950888, 7.85334324, 5.92452530, 26.01489958, 13.17193987, 18.66212742, 29.59011659
27.70469274, 55.73127488, 7.98592512, 6.54790043, 23.30772404, 21.55110206, 18.72965563, 33.76647746
27.04949168, 56.91924103, 7.45821695, 6.18263698, 21.25558750, 24.54842154, 18.99802621, 31.30814590
34.07528430, 63.56689390, 8.82751381, 6.05185922, 20.10286049, 19.43643486, 19.05124668, 25.57928850
34.95461343, 62.56057065, 8.40684245, 5.15751878, 24.03174983, 26.44995274, 16.76827361, 23.71444707
29.10927687, 51.42421609, 6.42066975, 5.38748550, 25.55337551, 34.81379037, 18.21537812, 29.72498949
28.22410317, 37.76936589, 5.15751878, 6.65770231, 24.20743687, 33.07680456, 17.45923824, 29.35387538
25.18928344, 31.21137613, 4.00624512, 6.03116904, 22.71343215, 24.63990666, 14.49482666, 23.11601177
26.90306674, 29.60109795, 4.10182886, 4.79061583, 18.81887351, 18.49256607, 11.63937284, 31.87436274
28.36723462, 27.91684080, 4.63141447, 4.90407993, 18.50067566, 18.40652058, 11.31370850, 33.95364487
23.08191933, 22.24803362, 4.30116263, 4.37892681, 18.91361943, 16.84710658, 13.10820354, 26.57207180
23.62943080, 26.78479046, 4.34165867, 4.20119031, 18.52498313, 17.48284874, 17.82624470, 23.90031381
32.65845985, 50.02424412, 7.38241153, 4.45533388, 19.86517053, 19.48974089, 18.78496739, 25.08435768
31.99335869, 48.64385881, 7.44479684, 4.84510062, 21.20259418, 17.11870322, 14.93234744, 25.89835902
23.99010213, 30.23904760, 4.61248306, 4.65564174, 22.69416224, 14.18537980, 11.13328343, 22.12464689
20.44688240, 24.59420663, 3.33166625, 3.65376518, 19.05911855, 12.89573573, 11.02156976, 18.53577622
19.46471166, 16.84710658, 3.15039680, 3.73831513, 17.98263051, 13.06043644, 12.45792920, 17.99722201
19.60867155, 20.07735042, 3.53906767, 3.09838668, 18.54386691, 13.11773609, 10.00624805, 15.02747484
21.58645409, 23.43448314, 3.58817502, 2.78388218, 16.06782499, 12.71809734, 7.35357056, 20.62522727
20.92725496, 24.77296914, 3.62629287, 3.53199660, 17.71792877, 13.78223494, 10.00000000, 22.54384617
23.54357662, 29.59645249, 3.59861084, 3.57071421, 15.08310313, 13.53883304, 11.54447920, 21.08791123
22.99619534, 26.21545346, 2.96647939, 2.98328678, 13.33885302, 11.07474605, 10.52853266, 26.60357119
20.89856454, 17.92693504, 2.42383993, 3.02489669, 16.40655357, 10.88347371, 10.35495051, 26.93000186
19.67549237, 20.61310263, 3.46049129, 3.58468967, 13.96513516, 11.37760959, 10.75290658, 19.59910712
21.68178959, 26.48065332, 3.82426464, 3.91790760, 17.74964788, 10.60895848, 13.74954545, 17.63660965
23.28143037, 27.07212589, 3.41320963, 3.79473319, 19.20416621, 13.62626141, 12.76812437, 20.72257223
20.28238152, 22.50999778, 3.32039154, 3.52845575, 14.64069670, 19.18462926, 9.50263121, 19.50833155
23.41634045, 17.59829537, 2.88097206, 3.01662063, 13.87173385, 20.10907755, 10.65715722, 20.47803702
23.53136205, 17.07483528, 3.35410197, 2.83725219, 15.57562198, 20.91351238, 10.23108010, 21.88835307
28.76325781, 33.22085189, 4.53872229, 2.98328678, 16.35924815, 23.94629408, 10.29563014, 25.92923061
29.85046063, 35.43973758, 4.52216762, 2.83725219, 14.16509795, 21.25617557, 10.87887862, 28.75673834
23.19374916, 25.74004662, 4.00000000, 3.64691651, 17.19738352, 18.52768199, 9.92219734, 26.09310254
26.12278699, 32.12320034, 4.10791918, 3.70135110, 18.27498290, 20.98749628, 10.23718711, 23.26531753
27.60434748, 35.83468990, 3.94651745, 3.33541602, 14.02141220, 19.26460485, 12.77497554, 28.17223811
29.39897957, 33.30427900, 3.67763511, 3.44601219, 15.01499251, 18.61988185, 15.51934277, 29.73844313
26.64817067, 25.80552266, 3.39484904, 3.15039680, 15.78844514, 19.54482029, 15.53705249, 33.49664162
25.61200890, 15.78686163, 2.76586334, 2.85482048, 14.10673598, 18.42213343, 13.14914446, 33.69532609
29.60912022, 17.15007289, 2.66458252, 2.82400425, 18.18034653, 23.96351393, 13.86181806, 29.33555863
25.41653005, 19.12851275, 3.66401419, 3.02489669, 17.36159555, 25.97691283, 17.22643318, 30.37350819
26.21545346, 22.57764381, 4.00624512, 3.26343377, 13.00000000, 21.38048175, 17.24383948, 31.35362818
28.10293579, 22.65446976, 3.76164857, 3.72827038, 11.58770901, 19.33261493, 14.52067492, 31.37475100
27.62290716, 25.27746032, 4.15030119, 3.47491007, 9.74166310, 18.70695058, 13.30695307, 30.43189117
25.85440001, 26.86261342, 3.71483512, 3.53199660, 12.13775103, 24.54638466, 14.48620033, 31.31692833
20.40771913, 19.98687069, 2.74772633, 3.71819849, 12.59960317, 25.66174195, 14.89798644, 27.77723888
15.27907065, 14.93987952, 2.31300670, 2.72946881, 10.28712788, 17.59403308, 18.47498309, 22.35732542
14.52239650, 13.53606294, 2.06155281, 2.36114379, 8.74928569, 13.36319573, 18.65341792, 23.66273442
16.47725705, 16.78243129, 2.70185122, 3.09434969, 15.82719179, 14.92816131, 14.40225677, 32.72384452
30.00749906, 27.67580170, 4.08962101, 3.98434436, 17.31978637, 20.17362139, 19.30220195, 35.54469018
29.03015673, 29.97373851, 4.11096096, 3.90512484, 11.07135945, 24.17333241, 18.53577622, 30.37227354
21.05706532, 20.66458323, 2.71108834, 3.33166625, 8.51909620, 21.03330692, 12.31665539, 23.19482701
23.16462821, 12.14907404, 2.36114379, 3.13049517, 8.21127274, 24.31100574, 15.91225942, 24.75025252
18.89841263, 15.90047169, 8.63568179, 4.28369000, 9.14193634, 23.33452378, 18.82153022, 26.88447507
20.46704668, 19.52242301, 18.62726496, 9.02773504, 12.32882801, 10.49285471, 17.29161647, 22.12803651
25.39931101, 20.02436016, 17.26774450, 8.94287426, 15.30277753, 12.58173279, 15.65167723, 26.93464312
26.11848005, 19.46920646, 6.97316284, 5.16720427, 15.82640199, 13.66107609, 15.31176019, 31.15244774
24.97949159, 23.75868262, 11.36551803, 5.52268051, 17.06092026, 16.55143498, 19.59272824, 29.47159650
23.85424491, 28.03836657, 29.87055406, 14.60736116, 17.70734311, 22.64508777, 21.19551839, 34.17930661
20.31624965, 27.92624214, 54.22038362, 25.18183869, 17.82484222, 29.32405156, 17.24021462, 32.14537292
20.52376671, 27.90609252, 51.84785434, 21.83346056, 16.78019666, 25.91862265, 14.23551896, 22.43323427
23.19644369, 22.25814458, 25.05843171, 8.02807573, 16.12606586, 18.89642823, 12.18913451, 25.70748918
20.02436016, 15.77260283, 12.19426095, 5.88217647, 15.29215485, 22.50388855, 12.42276137, 27.07628113
16.71526249, 14.96412376, 10.46064052, 4.65026881, 11.22831243, 21.26558252, 13.94274005, 19.72878608
17.07263893, 10.24817057, 8.21431677, 3.94334883, 10.79235841, 22.03009305, 12.91897829, 19.29313349
16.98970276, 6.21691242, 4.41304883, 2.59326050, 13.42944526, 22.58428657, 10.33319892, 23.18296789
15.39886359, 7.66322386, 2.70647372, 2.57390754, 13.61892066, 20.47132140, 10.06851528, 22.98477757
15.10463505, 12.03017041, 3.28633535, 2.53968502, 12.47798061, 18.28660712, 10.86968261, 23.24166517
16.37299606, 11.72070817, 3.00832179, 2.32379001, 12.37436867, 19.24512925, 15.80189862, 21.96246799
15.06817839, 7.89145107, 2.45967478, 2.50499501, 12.79941405, 19.74398643, 16.41950060, 20.63916180
18.32075326, 7.29897253, 2.42383993, 2.73861279, 11.60495584, 18.08383256, 12.53096166, 19.42421170
17.85217074, 7.37563557, 2.58843582, 2.65988722, 13.86903025, 23.38589318, 11.29712353, 21.40677463
12.10061982, 7.31436942, 2.59326050, 2.31840462, 13.77316231, 27.08874305, 10.54632637, 21.83861259
13.99106858, 7.34506637, 2.53475837, 2.06760731, 8.53522115, 23.87676695, 13.42479050, 20.07735042
19.70786645, 7.32632241, 2.79284801, 2.30759615, 11.07925990, 26.56407348, 14.51895313, 24.93040313
20.47254259, 6.59924238, 2.42899156, 2.50998008, 14.90553588, 27.50636290, 11.66511894, 21.65467617
20.71472906, 5.77061522, 2.15058132, 2.61247010, 15.00249979, 23.00217381, 11.51520734, 15.95775673
19.35329429, 5.96238207, 2.13892496, 2.37170825, 13.03744607, 26.81137818, 14.06236111, 20.58336707
21.08435439, 7.45654075, 2.15638587, 2.22485955, 10.30655131, 25.35350074, 12.80234354, 24.40747836
24.52090944, 7.12916545, 2.06155281, 2.24722051, 10.91902010, 19.84817372, 12.09235296, 23.08895840
20.33961652, 6.67270560, 2.37170825, 2.33452351, 14.46115486, 23.77078038, 12.65602623, 18.25719036
23.88147818, 11.59417957, 2.50000000, 2.36114379, 15.16987146, 25.42341440, 9.67083244, 18.95323191
28.97498921, 11.26055061, 2.13307290, 2.36114379, 14.06769349, 24.18470591, 10.25182911, 17.48070365
23.96142734, 8.58778202, 1.86413519, 2.61247010, 12.77399703, 26.46790509, 12.00624837, 16.91301274
21.44586207, 9.58384057, 1.88414437, 2.70647372, 15.43129936, 23.80231081, 12.16038651, 22.19459394
27.78398819, 9.58905626, 2.50000000, 3.49642675, 20.46032747, 24.77296914, 13.73226129, 21.70829335
26.04851243, 8.82326470, 2.73404462, 4.45813863, 20.90514291, 29.40833215, 13.79673875, 18.73432678
19.33520106, 7.59275971, 2.94108823, 4.71699057, 19.76233792, 30.36362956, 14.49223930, 23.72235233
20.01686789, 10.38147388, 3.51425668, 6.03945362, 17.73062323, 30.22457609, 15.11952380, 21.52382401
20.12771721, 13.32103600, 3.42052628, 6.47688197, 17.04772712, 30.20471817, 17.13111205, 18.90700928
21.07130751, 14.73940297, 2.77037904, 4.93457192, 21.58761219, 34.51448971, 17.84796907, 18.50878170
22.36235676, 14.60992813, 3.08625987, 4.16833300, 20.53229164, 39.37670631, 16.82334687, 18.20782799
23.09761892, 13.52590108, 4.61519230, 5.05964426, 17.04846034, 38.00657838, 18.13973539, 25.68121882
23.23628628, 14.51120257, 4.92188988, 6.57267069, 20.48108884, 32.22382659, 19.08336972, 26.45515073
22.27386361, 14.28635713, 3.53906767, 6.21691242, 20.16308508, 27.45997087, 18.04161855, 23.86158000
20.22436649, 15.27579785, 2.71569512, 3.81772183, 13.75227254, 29.24465763, 17.08727597, 26.20305326
19.26136028, 16.59518002, 3.17017350, 4.19225476, 16.46055892, 34.45068940, 17.37670855, 25.14309050
21.29964788, 17.59119098, 3.83405790, 5.17928567, 19.32938178, 37.71107264, 16.96245855, 18.81754500
21.33951733, 15.25204904, 3.61593695, 4.91426495, 15.94521872, 34.55719896, 14.63386483, 18.27635084
27.42899925, 8.52349693, 2.79284801, 4.22788363, 18.49864860, 28.69451167, 10.16980826, 22.83144761
28.35577543, 9.21004886, 2.58360214, 3.43511281, 18.73966382, 25.40570802, 10.90298124, 22.42877616
19.55185413, 12.52796871, 2.36114379, 3.67083097, 15.57883179, 26.05331073, 12.96823041, 20.43954500
17.47927344, 15.57000321, 2.86356421, 4.45252737, 15.71702898, 25.91621114, 14.55506785, 23.74026116
18.50337807, 13.21741276, 3.20546408, 4.39602093, 14.33788687, 22.81008549, 13.87353596, 22.30246623
19.75474627, 8.97496518, 2.94108823, 3.83731677, 14.96078207, 26.42962353, 10.16980826, 16.98970276
18.08037610, 9.03188795, 2.95381110, 3.43511281, 14.79780389, 23.02498643, 11.89012195, 18.56273148
19.30673458, 9.87927123, 2.86792608, 2.79284801, 12.01249350, 16.17482612, 11.79300640, 19.64306493
23.58230269, 10.72963187, 3.20936131, 3.38378486, 13.35945358, 13.40988441, 9.02496537, 22.14554131
27.04902956, 9.23173873, 3.25960120, 3.44601219, 14.82649655, 11.88381252, 11.36771745, 22.56102835
26.57677558, 7.55314504, 2.77488739, 3.05777697, 13.05277748, 19.70025381, 12.76518703, 22.15400641
17.68615278, 8.11171992, 2.35053185, 3.13847097, 11.78558441, 18.71162740, 13.67296603, 21.90547877
14.75466028, 8.32616358, 2.07364414, 3.23651047, 13.77951378, 11.53364643, 13.52312834, 25.16892926
20.10845593, 8.55131569, 2.95381110, 4.15331193, 16.55294536, 9.64494686, 13.99374860, 26.00672990
21.71462641, 9.10768906, 2.87662997, 3.72491611, 13.83835250, 4.70372193, 14.57051818, 23.87519633
21.54414073, 7.89620162, 1.99374020, 2.58843582, 10.90985793, 4.96487663, 11.35781669, 28.11761014
23.34577049, 8.20365772, 2.12720474, 2.79284801, 12.23008585, 5.27257053, 8.65303415, 27.00138885
27.91997493, 8.57904424, 2.10950231, 2.77938842, 13.67205178, 5.95608932, 12.13981054, 30.74369854
27.44221201, 6.80991924, 2.40312297, 3.59861084, 15.62369995, 5.95189046, 13.44247001, 30.82450324
24.88121782, 6.85018248, 2.69258240, 3.83731677, 15.57883179, 5.76411311, 14.42827086, 26.72545603
25.70408528, 7.73627817, 2.44948974, 2.83725219, 13.52405265, 5.06458290, 12.75245074, 23.02552931
21.61076121, 6.79705819, 2.48997992, 2.78836870, 13.49351696, 4.87852437, 7.78941590, 20.86144770
25.34067876, 5.06458290, 2.68328157, 3.29393382, 15.09552914, 5.87154154, 9.67083244, 22.92705825
27.18731322, 5.03487835, 2.25277607, 3.17411405, 14.73770674, 5.56776436, 13.67296603, 27.63738410
22.21992349, 6.09302880, 2.50000000, 3.56721180, 13.85009025, 5.43369119, 13.06139349, 27.46543282
24.94544047, 5.53172667, 2.74317334, 3.45687720, 13.37908816, 4.89897949, 9.82980163, 22.43936274
24.86362805, 8.59505672, 2.46475151, 2.96647939, 14.51895313, 4.19821391, 9.96619285, 27.38065010
22.05447800, 11.14786975, 2.45967478, 3.01662063, 14.54303957, 4.50555213, 9.02773504, 26.09837160
19.95870737, 8.61829449, 2.37170825, 3.52136337, 13.22497637, 4.94216552, 8.23862853, 21.65987073
16.95435047, 6.35413251, 2.34520788, 3.63661931, 13.01537552, 5.13809303, 7.29897253, 18.80558428
15.82640199, 7.72172261, 2.17944947, 2.81513765, 11.58447237, 4.64219776, 10.65363788, 18.62458053
22.11843123, 7.24568837, 1.96850197, 2.58843582, 9.86787718, 5.22494019, 13.64551208, 23.95934056
21.50930031, 5.40138871, 1.89736660, 2.99583044, 11.36331818, 5.67230112, 11.71857500, 22.80076753
15.36717280, 3.86328875, 1.87749834, 3.24422564, 13.09293703, 5.46122697, 13.39216189, 18.01943395
17.85707143, 3.86005181, 1.82345825, 2.99583044, 15.54348738, 5.67450438, 13.84828509, 20.23672404
19.17550521, 4.40170422, 2.07364414, 2.94957624, 14.48361143, 6.69514750, 9.99124617, 19.98499437
20.38872237, 4.20416460, 2.14476106, 3.38747694, 14.03210604, 7.22149569, 10.70630655, 21.22145141
19.25616784, 4.22788363, 1.96214169, 3.06186218, 13.71404390, 5.72712843, 12.37335848, 21.86892773
18.80026596, 4.60705980, 2.36114379, 3.05368630, 13.41081653, 5.45206383, 12.75539102, 19.83368347
21.38106639, 5.25832673, 2.44948974, 3.20156212, 13.62534403, 6.77495387, 15.01832214, 22.56878375
17.77638883, 4.78800585, 2.12720474, 2.98747385, 12.77693234, 7.84059947, 14.35357098, 25.27844932
20.62159063, 4.80364445, 2.13307290, 2.87228132, 14.68843082, 7.15716424, 10.33440855, 23.58654277
22.52110122, 5.38052042, 2.04328167, 2.52487623, 14.15450458, 6.65394620, 10.97041476, 23.32541532
19.48653381, 4.71168760, 2.40831892, 2.59326050, 12.48198702, 8.54839166, 12.44989960, 26.97545180
19.34101859, 4.44128360, 2.89395923, 2.86356421, 11.39736812, 8.63133825, 12.86953768, 24.17022962
19.33972595, 5.51815186, 2.77037904, 3.04138127, 14.63642716, 9.63587048, 13.61249426, 24.44790380
17.02277886, 5.44747648, 2.55440795, 2.97069016, 15.08807476, 10.02746229, 13.01537552, 21.48255106
18.86199883, 4.54422711, 2.88097206, 3.03315018, 11.59633563, 7.75080641, 10.80971785, 19.10824429
24.08163200, 5.31507291, 3.17017350, 3.14245127, 10.18577439, 8.32015625, 10.55580409, 23.64635278
25.37863274, 5.59016994, 3.56370594, 3.15039680, 11.63400189, 8.95544527, 11.50217371, 21.83346056
23.87257841, 5.94138031, 3.53199660, 2.84165445, 13.04607221, 6.85018248, 11.95094139, 18.89775119
22.30975123, 5.59016994, 2.96226265, 2.44948974, 14.13859965, 7.61577311, 10.43671404, 16.49621169
29.86176485, 4.08044115, 2.49499499, 2.36114379, 15.24631103, 7.22322643, 8.27496224, 20.14013406
36.43281488, 3.94651745, 2.23606798, 2.39269722, 14.65264481, 6.39140047, 9.48815050, 23.07000217
30.93501253, 3.91790760, 2.32916294, 2.58843582, 11.70790331, 8.58923745, 10.18700152, 20.96723635
24.74873734, 3.18590646, 2.48997992, 2.67861905, 10.83858847, 8.75928079, 9.35815153, 20.76836537
24.66475218, 2.91976026, 2.52982213, 2.81513765, 10.72497086, 7.81344994, 7.88352713, 25.60663976
18.57013732, 2.80178515, 2.25277607, 2.85482048, 11.00454452, 6.84653197, 9.67083244, 26.77405461
18.52093410, 2.82842712, 2.28582589, 2.70647372, 13.93018306, 6.68019461, 13.06809091, 24.09823645
24.18470591, 3.60208273, 2.51992063, 2.76134025, 14.34311682, 5.98957428, 12.36224090, 20.51767531
24.24458702, 3.72827038, 2.44438131, 2.74317334, 12.47196857, 6.97495520, 11.02270384, 17.50357106
24.65714906, 3.10644491, 2.49499499, 3.12649964, 11.38419958, 7.44143803, 9.91967741, 16.56804153
25.57684500, 2.86792608, 2.20794022, 3.32039154, 11.24055159, 8.84166274, 9.57601170, 13.29849616
24.18780685, 3.17804972, 2.20227155, 3.11046620, 12.69940944, 9.04986188, 10.56645636, 12.95665852
21.46741717, 3.11849323, 2.38746728, 3.18590646, 15.08724627, 8.52936105, 9.80433578, 15.07895885
19.47049049, 2.60288302, 2.07966343, 2.89827535, 13.43409841, 8.66746791, 9.06780017, 17.52355558
21.12167134, 3.07814879, 2.14476106, 2.87228132, 14.54475851, 7.22149569, 7.90411285, 17.30895722
24.90883377, 3.31285375, 2.05548048, 2.82400425, 15.35578067, 6.34231819, 6.40507611, 17.00882124
23.45101277, 2.89827535, 1.88414437, 2.53475837, 14.62788433, 6.60113627, 5.35023364, 15.09635718
17.03525756, 2.74317334, 2.04939015, 3.19765539, 15.35903643, 6.65770231, 6.62193325, 11.07361730
17.14715720, 5.70964097, 2.06760731, 3.28252951, 14.49310181, 6.56886596, 8.84731598, 15.18057970
25.93742470, 7.47161295, 2.13307290, 2.72029410, 14.17303778, 6.95341643, 8.61974478, 16.38291793
23.07162760, 5.68990334, 2.01246118, 2.50499501, 12.42879721, 4.76707457, 5.47265932, 11.62002582
9.06642157, 6.04565960, 2.01246118, 2.22485955, 12.10578374, 4.33877863, 5.22972275, 10.78192933
21.30492901, 13.74772708, 2.69722079, 3.19765539, 16.10124219, 7.17635005, 12.48899516, 24.96297258
26.55983810, 15.94443477, 3.41686991, 4.21010689, 18.38069640, 8.65736681, 18.15213486, 34.03233756
23.73078170, 14.81721971, 3.28252951, 3.58120092, 16.19722198, 7.58452372, 15.95775673, 28.68579788
22.52942520, 12.57775815, 2.77938842, 2.82400425, 16.30490724, 7.73627817, 12.07062550, 17.98888546
24.97999199, 12.80331988, 3.45325933, 3.35782668, 17.97915460, 8.42466617, 11.58878768, 29.70605999
30.13096414, 13.38375881, 9.31128348, 4.55247186, 16.87453703, 9.98749218, 17.61959137, 33.20805625
32.66152170, 11.98332174, 12.37739876, 5.10147038, 13.01057262, 10.40312453, 20.37093518, 28.56746401
30.47293881, 18.79095527, 9.24932430, 4.57711700, 13.54437152, 8.14555093, 15.05489953, 28.74412984
23.46433464, 19.08402473, 4.56891672, 4.21900462, 18.69291310, 7.12039325, 12.26682518, 21.79392117
17.70451920, 17.95550055, 4.19225476, 5.16236380, 28.06955646, 8.22192192, 11.87223652, 13.81937046
16.10900369, 22.12238685, 9.10768906, 12.02393446, 27.27590512, 8.75785362, 10.01623682, 10.02247474
16.17482612, 28.77368590, 21.79793568, 16.54992447, 19.32162001, 9.03188795, 8.81901355, 15.81059771
18.79694124, 31.91864659, 31.97811752, 17.71933972, 25.06890504, 9.07469008, 10.94646062, 23.60190670
20.90633875, 27.52271789, 43.68638232, 16.19799370, 25.60810419, 10.55106630, 14.04101136, 26.31681972
20.80144226, 32.26298188, 54.79963504, 19.75411350, 22.36403363, 19.44286502, 15.98905876, 22.52609598
21.07368027, 40.18146339, 66.30441162, 31.11751918, 22.74862633, 22.40981928, 14.47584194, 23.09220648
22.94013949, 36.14450166, 62.85837255, 33.34516457, 23.73657515, 17.37598918, 16.66283289, 28.74630411
23.82960344, 29.37643614, 50.99509780, 26.53394053, 24.67741883, 18.90105817, 17.85287092, 26.60779961
28.06732976, 30.31789900, 55.14004897, 24.69514122, 22.03122784, 19.54801780, 14.26797112, 25.39438914
29.89314303, 29.33513252, 50.56604592, 24.28476889, 19.69898475, 14.09964539, 14.02230366, 23.51435732
24.68856010, 23.41794184, 36.27257917, 19.80845779, 20.25030864, 12.39556372, 13.77679208, 24.08163200
25.07339227, 23.55737676, 33.43650699, 17.47212065, 21.06774786, 13.98928161, 12.75147050, 25.77838242
26.12230847, 28.19352763, 43.41658669, 21.48313292, 21.11634438, 15.95227257, 13.23536928, 25.62615851
27.59981884, 28.67359412, 50.17594045, 29.06329300, 21.88435514, 16.24961538, 14.81131324, 27.77768889
26.52922916, 25.52547747, 48.68059162, 26.62846222, 22.67156810, 17.31473361, 14.54303957, 30.18940211
25.72255819, 22.94613257, 39.95747740, 16.19336284, 25.44503881, 18.16659021, 16.09425363, 34.35876890
29.71952220, 19.75854246, 31.30215648, 14.70374102, 25.01599488, 13.36787193, 16.97645428, 27.66405610
29.45080644, 15.38343265, 33.59650279, 15.44991909, 23.74552589, 13.91581834, 15.59807680, 17.97359174
28.17667475, 17.84516741, 32.98067616, 16.55747565, 22.95157947, 18.72364815, 16.10201851, 19.80088382
27.08874305, 17.48856769, 27.11457173, 15.40211025, 20.56939474, 18.80292530, 13.91042774, 23.53348678
28.16646943, 12.41168804, 23.81071188, 12.29634092, 20.58761764, 18.92551188, 14.04635184, 28.21125662
26.89284291, 10.79699032, 18.99210362, 10.81434233, 24.82287252, 19.90979658, 15.85953972, 28.50263146
28.90025951, 11.07700320, 12.90445659, 8.64002315, 24.88272493, 16.82706154, 13.63726512, 24.89226788
25.44553006, 10.33198916, 16.02420045, 10.62779375, 27.61113906, 13.91851285, 10.87658034, 22.72883631
18.83082579, 11.07361730, 21.61249639, 14.69268525, 28.24756627, 15.59406939, 9.54070228, 22.01590334
21.36644566, 11.90798052, 21.80825532, 13.85911253, 21.50930031, 17.96385259, 13.07765269, 23.76657316
19.43321898, 12.93058390, 28.85480896, 13.77588473, 21.57544901, 19.29248558, 14.71054044, 25.92151616
19.27822606, 12.58570618, 30.25640428, 13.88344338, 19.14418972, 18.32757485, 13.11964176, 24.20072313
19.26979502, 10.59834893, 24.32950883, 11.86275685, 18.80624896, 16.69805378, 11.22608569, 19.76802975
17.84166472, 9.31128348, 22.63183598, 10.47019580, 18.91758441, 14.39357496, 9.90959131, 14.90553588
19.49807683, 10.03742995, 22.53441812, 8.83883476, 20.10845593, 14.86354601, 11.22274476, 17.79325715
19.95056390, 11.29933626, 22.65281439, 9.51971638, 20.48230944, 17.56345638, 10.37424696, 17.18647724
22.19966216, 10.32109490, 21.86263936, 8.80908622, 26.74883175, 17.66988964, 10.63602369, 13.16529529
21.30844903, 8.89381808, 22.81556486, 8.00936951, 26.02883017, 16.34701808, 11.17362967, 14.00803341
15.15008251, 9.26552751, 20.45910555, 7.93252797, 14.71308941, 13.34634782, 12.09752041, 13.35477443
11.55530181, 9.75961065, 17.19738352, 7.79422863, 16.27267649, 10.65011737, 12.47196857, 11.87749974
17.27570548, 9.39813811, 14.02497772, 6.62382065, 21.17073452, 12.45090358, 10.99317970, 11.71430749
20.06240265, 10.80393447, 18.41398925, 8.59796488, 20.01936562, 13.19659047, 10.09579120, 12.62141038
22.61249655, 11.65439831, 18.45941494, 9.12140340, 15.44020725, 12.94314490, 8.26135582, 12.23417345
21.43070228, 9.49341877, 10.96471614, 7.76691702, 14.10673598, 12.44789139, 6.74536878, 12.35414910
15.83982323, 8.09166238, 10.26279689, 7.84059947, 15.00583220, 12.12023102, 6.76202632, 11.21383075
18.56138465, 7.77335192, 10.64659570, 6.53452370, 20.24042984, 15.08144555, 7.05868260, 10.26279689
18.28318900, 9.76089135, 12.14495780, 9.34612219, 18.88981207, 22.65778012, 9.05124301, 13.29473580
14.55077318, 10.07968253, 12.90251913, 8.96799866, 17.31978637, 21.96758976, 8.91487521, 13.90413608
14.13859965, 8.64002315, 9.89065215, 4.90917508, 17.73273809, 13.89964028, 7.01783442, 11.15571602
17.80449381, 7.86288751, 7.40945342, 5.13809303, 15.11208126, 12.95955246, 6.63513376, 8.84731598
17.56986056, 7.36715685, 8.15168694, 5.26070338, 16.57784666, 16.38062880, 5.92030405, 9.69407035
14.96996994, 7.11512474, 7.95612971, 6.28887907, 18.20096151, 18.18722079, 6.79705819, 10.44988038
18.66145761, 7.39256383, 6.38944442, 6.33245608, 16.45676153, 16.11055555, 6.97495520, 10.41033141
18.13215376, 7.61577311, 5.43829017, 6.00416522, 15.89339485, 14.24956140, 6.36396103, 10.46541925
15.21101575, 6.51344763, 5.34322000, 5.98122061, 15.42724862, 17.69816375, 7.42798761, 11.23387734
21.15892247, 7.15192282, 6.13188389, 5.67670679, 15.60048076, 17.86756839, 8.39493895, 12.83062742
20.59672304, 6.24099351, 6.12372436, 4.85025773, 17.47855829, 13.16909260, 8.32766474, 13.18142633
12.90058138, 3.46770818, 4.02181551, 3.48568501, 15.59406939, 10.83397434, 7.72495955, 9.30591210
13.77225472, 2.19089023, 2.46981781, 3.42417873, 14.45077853, 10.75639345, 6.50192279, 7.69902591
15.65407295, 4.19523539, 2.82842712, 3.64348734, 15.05074749, 12.12847888, 6.15426681, 10.68644001
17.11870322, 7.25947657, 9.91715685, 4.82700735, 12.96244576, 13.83925576, 8.91908067, 10.49166336
16.86860990, 7.37394060, 11.24388723, 4.80104155, 10.19190856, 13.89694211, 9.81198247, 11.77709642
15.63089889, 5.53624421, 7.21976454, 4.05585996, 10.75987918, 17.64936259, 8.24014563, 11.87539473
13.05947932, 4.33301281, 4.78539445, 4.11703777, 10.28105053, 18.91494118, 7.63053078, 10.28105053
15.39155613, 3.16227766, 2.57390754, 3.40954542, 10.02621564, 15.33541653, 6.69328021, 11.59310140
21.69562168, 2.98747385, 2.17944947, 2.78388218, 14.89211201, 13.35571039, 7.16065639, 12.22395190
21.60902589, 2.96647939, 2.57875939, 3.65718471, 16.09114663, 12.26580613, 6.93361378, 11.56070932
16.54992447, 2.77037904, 2.83725219, 3.43147199, 13.74499909, 9.43000530, 5.74456265, 11.92476415
17.63306553, 2.67861905, 2.48997992, 2.80624304, 12.77693234, 10.35495051, 6.26897121, 12.86079313
20.41629251, 3.87298335, 2.60288302, 3.19765539, 14.79780389, 9.67729301, 6.02494813, 13.43595921
20.10037313, 3.91152144, 2.21359436, 3.22102468, 18.18103407, 3.53199660, 5.35023364, 12.93734903
21.04697128, 2.77938842, 1.78885438, 2.86356421, 17.25108692, 3.15832234, 5.36656315, 11.98957881
20.54507240, 2.23047080, 2.05548048, 2.56904652, 15.30686121, 3.86975451, 6.67270560, 11.12317401
19.85761819, 3.92746738, 2.42383993, 2.70185122, 16.08726204, 4.46934000, 7.52828002, 9.75832978
15.43129936, 4.32434966, 3.28633535, 2.95803989, 18.68354891, 4.34165867, 7.01605302, 12.64021361
18.49594550, 4.45252737, 4.57438520, 3.33916157, 17.30462366, 3.85032466, 7.75403121, 12.94507628
20.67667768, 4.50832563, 5.21296461, 3.32415403, 12.33389638, 3.46049129, 6.82825014, 9.90202000
14.88539553, 3.64348734, 4.25147033, 3.53553391, 15.90518783, 3.68781778, 5.63914887, 9.57209486
13.08147545, 4.35028735, 5.59910707, 6.12168278, 18.17484525, 3.82753184, 6.98569968, 9.57862203
17.83465727, 5.35490429, 7.16414684, 7.10281634, 21.20200462, 7.73466224, 7.81504958, 10.88577053
23.53826672, 8.39344983, 6.37181293, 7.30068490, 29.14532553, 7.86765531, 8.92328415, 19.85258170
25.08336102, 8.73784871, 6.37181293, 7.99218368, 31.46227900, 4.75131561, 10.44389774, 21.31666015
19.43450540, 5.65022123, 7.26464039, 11.30928822, 23.48989144, 5.46351535, 9.48683298, 13.19090596
14.50172404, 4.61789996, 6.76017751, 11.65225300, 15.25450753, 6.57267069, 6.99821406, 11.80783638
22.46886735, 7.32461603, 6.08481717, 9.01110426, 17.30751282, 6.77126281, 8.44689292, 13.22119510
32.10101245, 9.28843367, 12.15935854, 14.47411483, 15.78211013, 6.46915760, 9.96619285, 12.95665852
32.83062595, 12.03017041, 12.75833061, 15.35578067, 13.72224471, 5.96028523, 9.40611503, 14.75042372
30.60678029, 14.53788155, 8.03741252, 9.82216880, 19.23603389, 8.48822714, 10.06479011, 13.66382084
29.69553839, 14.25833090, 6.83191042, 8.37555968, 19.18918967, 10.01498877, 10.22252415, 15.48466984
29.99708319, 13.52312834, 6.64454664, 10.89265808, 13.36880698, 11.00113630, 8.58341424, 15.69076161
35.23208765, 16.06704702, 6.34625874, 11.23832728, 12.13363095, 11.27386358, 7.95455844, 11.29269675
33.30427900, 16.98528775, 5.85234996, 9.43663075, 13.49722194, 10.82589488, 9.32871910, 13.71677805
25.06491572, 17.19520282, 6.66333250, 10.21028893, 16.45979951, 10.62779375, 11.21048616, 14.51809216
21.30316878, 15.97106759, 8.86566410, 10.27010224, 15.69474434, 11.59310140, 11.38200334, 12.26784415
22.78212018, 11.83532847, 11.21828864, 9.58123165, 13.33135402, 13.21930407, 10.65129100, 12.22599689
23.52976838, 22.29630014, 10.76916896, 8.83883476, 11.17362967, 11.11755369, 9.95238665, 13.99910711
22.75576850, 25.02298943, 11.98853619, 7.00535509, 9.97622173, 10.84204778, 9.04157066, 13.39402852
21.15005910, 17.94087512, 12.80624847, 7.30924073, 11.01249291, 13.94811815, 9.20733403, 11.06119343
23.11384866, 17.21481920, 12.61348485, 7.68927825, 11.44661522, 12.75147050, 9.66566087, 11.41052146
20.92128103, 15.08973161, 11.63937284, 6.65582452, 10.62779375, 8.67899764, 8.41575903, 12.46394801
16.91005618, 19.42742906, 9.84377976, 5.54301362, 10.54751155, 9.21004886, 8.02496106, 11.22274476
20.14882131, 19.97310692, 10.70630655, 5.00499750, 11.71110584, 11.47824028, 9.84377976, 9.74679434
21.54181979, 12.24744871, 10.90756618, 5.42678542, 13.25424460, 11.49347641, 10.56409012, 13.46198351
21.26969675, 13.94005022, 9.95866457, 5.64136508, 14.09432510, 8.69913789, 8.96799866, 13.05565012
18.09143444, 13.54621718, 8.55716074, 4.96487663, 12.83062742, 9.55510335, 6.92278846, 8.12403840
15.32889428, 9.27227049, 7.45150991, 4.48051336, 12.58173279, 11.15235401, 6.28291334, 7.83900504
17.36015553, 8.92888571, 8.60377824, 4.98998998, 14.70204067, 10.95901455, 7.15017482, 9.67212490
18.54454098, 10.07844234, 10.63249735, 5.64358042, 15.09138827, 10.02122747, 8.80766711, 12.30954914
21.32662655, 10.04241007, 10.82589488, 5.19855749, 15.04160896, 9.54332227, 8.89381808, 13.57018791
22.32431410, 11.93419457, 9.98624053, 5.10636857, 15.92246840, 10.15627885, 9.79540709, 13.40335779
17.32267300, 11.80889495, 7.33655232, 4.50555213, 14.69013274, 8.30060239, 9.51052049, 11.28826825
20.39423938, 9.54594155, 6.37769551, 4.26321475, 11.78982612, 8.72639674, 8.40089281, 9.07744457
24.99449939, 8.63568179, 6.86476511, 4.28660705, 12.22804154, 11.77285012, 8.82751381, 12.74656817
25.96536154, 9.85266461, 7.34846923, 4.50000000, 11.95930600, 10.41633333, 8.81901355, 14.06236111
24.39057195, 10.28712788, 11.17586686, 5.50454358, 8.32316046, 8.16853720, 8.70775516, 12.89185790
22.23060953, 7.53160010, 10.82589488, 5.46580278, 8.75071426, 13.56373842, 8.02028678, 13.73317152
29.73760246, 9.44589858, 10.76336379, 5.62361094, 8.11326075, 13.78223494, 8.31113711, 13.45734000
30.64514643, 10.13039979, 12.40463623, 5.73149195, 9.08845421, 11.03063915, 9.16787871, 13.12916601
22.27105745, 7.13091859, 11.73882447, 5.54075807, 13.77134707, 10.40792967, 8.48380811, 14.29860133
18.32962084, 7.97025721, 11.34019400, 5.39212389, 14.76228302, 9.30994092, 7.60756203, 14.09875881
17.88435070, 8.85014124, 10.41153207, 5.68110905, 14.02765126, 10.97838786, 8.43208159, 14.89211201
22.83418490, 7.77495981, 12.36021844, 6.18061486, 12.17168846, 11.68332145, 8.69482605, 14.15803659
23.48510166, 7.54983444, 12.10991329, 5.43369119, 11.85537853, 9.59296617, 8.21279490, 12.62636131
21.08435439, 9.26957388, 12.46495086, 5.42678542, 12.99134327, 8.06535802, 6.96239901, 13.39309524
20.59611614, 9.74935895, 13.94542936, 5.72494541, 11.75159564, 9.46968848, 6.86112236, 12.54591567
25.12767399, 8.10092587, 10.79699032, 4.68774999, 10.51427601, 10.08712050, 10.03369324, 13.18427093
24.08267012, 8.77496439, 10.59716943, 5.13322511, 8.68331734, 8.73355598, 10.41393297, 15.13935269
12.46093897, 10.14642794, 14.62275624, 6.97495520, 8.66314031, 8.90084266, 8.52056336, 15.11704336
14.36488775, 9.11592014, 14.70799103, 7.01070610, 9.79030132, 10.51427601, 8.76926451, 13.64276365
19.17354949, 9.49868412, 12.82770439, 6.55743852, 12.99326749, 10.32230594, 8.22040145, 12.87730562
21.64948036, 9.42204861, 13.16719408, 6.45174395, 13.99732117, 9.02358022, 8.13941030, 12.09855363
21.54298030, 8.36958780, 21.13705277, 9.57862203, 12.75637096, 8.56446145, 8.39344983, 13.96065901
19.48140139, 11.28716085, 26.85470164, 12.57577035, 11.37760959, 10.67473653, 9.40212742, 15.09966887
16.60722734, 11.10517897, 20.61492178, 10.40192290, 13.35383840, 10.85126721, 9.51971638, 14.10762205
17.42555595, 8.39493895, 10.97383251, 6.42845238, 14.27935573, 8.57758707, 8.51762878, 15.44991909
16.97203582, 7.18157364, 12.24948979, 6.59166140, 11.69722189, 7.34846923, 8.45576726, 13.59043781
17.58337283, 8.53082645, 14.39183796, 8.85861163, 11.97288603, 10.52497031, 7.89303490, 10.60188662
22.41929972, 9.26012959, 12.74068287, 8.66890997, 12.13363095, 11.45098249, 7.37563557, 11.79512611
23.82855430, 6.89202438, 11.11080555, 7.09401156, 10.81896483, 9.05952537, 7.39256383, 11.82370500
22.29405750, 5.66789202, 11.35341358, 6.50192279, 10.65129100, 8.16088231, 6.92639878, 11.81207010
17.52070204, 5.46351535, 10.17718036, 5.84593876, 11.80148296, 6.45368112, 7.64035339, 12.25663086
16.58312395, 6.24299608, 11.63507628, 6.40312424, 11.96662024, 6.13188389, 8.01560977, 11.45098249
19.77940848, 6.13595958, 9.81070844, 5.93085154, 13.31634334, 6.63136487, 7.32802838, 11.91952180
22.55216176, 4.23083916, 8.48380811, 5.70964097, 13.21457529, 5.19615242, 7.03562364, 14.83997978
22.95375786, 6.90832831, 11.83427226, 6.98927750, 13.00961183, 4.41021541, 5.96657356, 16.99043849
22.07147480, 8.15781834, 14.57995199, 8.57904424, 13.00096150, 6.04565960, 7.54320887, 14.27848031
20.07236907, 8.43059903, 16.28419479, 8.05915628, 11.63077813, 5.78791845, 8.10709566, 12.53096166
18.38273647, 7.15716424, 16.10279479, 6.81542368, 12.31665539, 4.25147033, 7.63380639, 13.43409841
19.51345690, 4.35603030, 11.46516463, 5.48406783, 11.33247546, 5.59910707, 8.25832913, 10.93960694
18.82086608, 7.72657751, 5.15024271, 3.99687378, 10.45466403, 6.16644144, 6.96419414, 11.33798924
18.48783384, 8.69626357, 8.19451036, 5.43369119, 10.05360632, 6.32455532, 5.82022336, 14.46374779
21.15065011, 6.87022561, 9.74037987, 6.66520817, 12.24234455, 7.33655232, 6.71565336, 14.61078369
20.29655143, 6.02079729, 8.78635305, 6.00416522, 13.41268057, 7.37054950, 6.96239901, 13.67022311
16.27882060, 8.58341424, 8.48086081, 4.81923230, 13.15104559, 6.50192279, 7.71686465, 14.43173586
22.20078827, 8.48822714, 9.71210585, 5.80732296, 12.70432997, 7.57132749, 8.95404936, 13.99196198
20.58336707, 5.45893763, 10.17349497, 5.81162628, 10.83743512, 7.12039325, 9.27631392, 12.60059522
15.75753788, 6.34034699, 9.78263768, 5.21536192, 10.56527330, 7.49666593, 7.58781919, 12.07994205
18.87259919, 7.37224525, 10.21273715, 4.93963561, 11.11755369, 8.35314312, 6.90289794, 13.57203006
17.26919222, 8.21888070, 10.59952829, 5.57449549, 12.20962735, 6.17049431, 7.45989276, 13.38842784
19.39071943, 7.09048658, 8.94846356, 5.35723809, 12.85106999, 4.87852437, 7.79903840, 12.38446608
19.18528082, 4.90917508, 8.62554346, 4.09267639, 13.47404913, 6.61059755, 7.97966165, 13.67022311
17.27353467, 5.19374624, 8.72782905, 4.45252737, 11.79088631, 7.00713922, 6.76941652, 13.73044063
17.95410816, 5.10147038, 7.69090372, 4.77755167, 9.38216393, 7.75725467, 6.63701740, 14.08367850
15.00333296, 5.01248441, 9.69278082, 5.64800850, 9.95740930, 7.97809501, 7.59605161, 15.32889428
17.48499357, 5.60133913, 10.75174404, 5.77061522, 9.33005895, 7.54983444, 7.20936890, 14.13152504
24.17488366, 5.58345771, 9.39414711, 4.98246927, 10.49404593, 6.81358936, 6.35019685, 13.71860051
22.18727113, 4.84510062, 8.36510610, 5.50000000, 11.76329036, 7.17983287, 8.77781294, 13.51018135
19.14745414, 5.34789678, 10.07099796, 6.11146464, 10.41393297, 8.62988992, 9.95489829, 12.35718415
20.96664017, 6.31862327, 11.96244122, 5.90127105, 10.67824892, 7.90411285, 10.41273259, 13.64917580
21.96076046, 5.79655070, 10.07348003, 4.97493719, 9.76729236, 8.60668345, 10.76220238, 14.34050208
22.96954505, 5.14538628, 9.00000000, 4.75131561, 10.87313202, 8.81759604, 9.39813811, 14.20035211
23.23359636, 4.83218377, 10.27010224, 4.98497743, 11.05214911, 8.64436232, 9.73524525, 13.43316791
22.09694549, 5.04479930, 9.03742220, 4.46374282, 8.96799866, 8.83600589, 8.67467579, 12.32071427
21.58413769, 6.14613700, 7.47161295, 4.51940262, 11.38749314, 9.67858461, 6.80624713, 14.65435089
19.14549555, 5.41525623, 6.68393597, 4.44128360, 10.94531863, 9.34210897, 8.11788150, 15.51048033
17.11943340, 4.56891672, 7.03740009, 4.63141447, 9.98749218, 10.49642796, 9.23444638, 15.68438714
23.17110269, 5.30801281, 8.54254061, 5.01996016, 10.16489056, 10.40312453, 8.15168694, 15.90282994
25.31353393, 5.14538628, 9.13236005, 4.50555213, 11.64903429, 8.95404936, 7.70876125, 16.04446945
21.77670774, 4.36463057, 8.30210817, 4.00624512, 13.12154716, 9.82852990, 9.30053762, 15.20855023
19.97248107, 5.36423340, 7.52661943, 4.79322438, 11.36771745, 9.66307405, 8.05450185, 13.70401401
19.96872555, 6.15426681, 10.09579120, 5.53398591, 9.55379506, 9.94610477, 7.75725467, 13.85009025
18.81422334, 5.69429539, 9.74422906, 4.61789996, 11.71217315, 10.51784198, 9.07331252, 15.19292599
20.59247435, 5.78791845, 8.63423419, 4.31277173, 13.13107002, 10.90527395, 8.48822714, 15.30931089
20.25339478, 6.91917625, 10.37063161, 4.96487663, 12.11300954, 11.59741350, 8.46758525, 15.18881167
19.50512753, 7.14667755, 8.39940474, 4.13219070, 11.62002582, 9.62159031, 9.69664891, 15.49112649
21.48720550, 7.12741187, 4.50277692, 3.01247407, 11.60387866, 8.43652772, 9.40079784, 16.22343983
21.43128554, 7.24396300, 3.54612465, 3.36526373, 12.19631092, 11.85116028, 8.39196044, 15.02165104
18.73499400, 7.54155156, 3.66742416, 3.51069794, 12.39758041, 12.07683733, 8.52789540, 11.18369349
17.20174410, 6.71937497, 3.56721180, 3.09434969, 13.85009025, 8.81759604, 8.13787442, 12.10371844
18.37933622, 5.75543222, 3.90192260, 2.93257566, 14.76058942, 6.34231819, 8.29608341, 14.04724172
24.80372956, 8.81901355, 7.08519583, 4.20119031, 11.75478626, 8.26891770, 8.32766474, 15.63009917
24.82236894, 9.39946807, 8.96521054, 4.99249437, 10.62191132, 8.24166245, 6.72495353, 15.65646831
19.28146779, 6.91556216, 9.63457316, 4.97242396, 11.21494539, 8.01249025, 6.55934448, 15.20361799
23.69915610, 5.75543222, 8.10709566, 4.52493094, 12.32984185, 8.95404936, 7.26808090, 14.10673598
22.87957605, 6.17656863, 5.17204022, 3.57071421, 12.41168804, 9.83742853, 7.80864905, 14.33003838
19.62205392, 5.45893763, 4.28660705, 3.35782668, 10.61013666, 11.09391725, 8.17618493, 14.28723206
22.07713750, 6.19273768, 3.56721180, 3.24807635, 11.18257573, 11.56287162, 8.15935046, 12.89282746
21.73476478, 6.47302093, 4.49722136, 2.91976026, 13.95797263, 9.97622173, 8.78350727, 14.01517035
21.01963368, 5.93295879, 4.50555213, 3.20546408, 13.01825641, 7.66322386, 7.47495819, 12.44286944
22.12634177, 5.67450438, 5.63693179, 3.99687378, 10.86738239, 7.28868987, 6.26498204, 11.66940444
19.74018744, 5.29386437, 5.93085154, 4.07430976, 13.72406645, 8.94846356, 7.88352713, 15.18551942
19.27044369, 6.17251974, 4.26614580, 3.46770818, 13.24575404, 10.13286731, 8.63133825, 16.13846337
22.37297477, 5.88005102, 3.38378486, 3.01662063, 14.60736116, 7.53989390, 7.35017007, 14.07391204
23.94786003, 5.92452530, 4.02802681, 3.04959014, 14.23200618, 5.16478460, 6.19677335, 10.46422477
25.41702186, 5.23211238, 3.96232255, 3.11046620, 10.35615759, 7.23360215, 5.69209979, 11.74308307
22.86591350, 4.65295605, 3.25576412, 3.20156212, 12.95858789, 7.99374756, 6.37377439, 12.73773920
21.04815906, 5.01497757, 4.61789996, 3.59165700, 16.79508857, 7.51831098, 8.69770085, 12.09958677
22.30975123, 4.13521463, 5.29622507, 3.54612465, 16.79657703, 6.85200701, 8.95404936, 14.93987952
22.92869381, 4.61519230, 4.30116263, 3.30907842, 16.59367349, 5.76411311, 7.79903840, 16.94918877
21.72556098, 6.22294143, 3.54612465, 3.62284419, 16.83968527, 5.86728216, 7.32120209, 17.14278274
20.55054744, 5.62805473, 4.06201920, 4.39317653, 15.58123872, 8.92748565, 8.85155354, 15.06734880
22.67983686, 4.42718872, 4.11703777, 4.35603030, 14.77751671, 10.04614354, 8.99583237, 13.41733953
23.06512519, 5.24880939, 4.76969601, 3.71146871, 15.13687550, 8.02963262, 8.66890997, 14.72412986
19.09515645, 4.55796007, 5.15024271, 4.29243521, 18.22018112, 6.92820323, 8.30060239, 13.70857396
18.36436767, 4.31277173, 4.18927201, 4.87339717, 17.99722201, 6.65582452, 7.16763559, 13.10057251
21.49011401, 5.40370243, 4.30697109, 4.99749937, 14.50258598, 8.50441062, 7.44983221, 13.88884444
23.64053722, 5.46808925, 4.95983871, 4.43001129, 11.73775958, 9.87800587, 9.99749969, 11.78770546
23.18027178, 4.98998998, 5.59910707, 3.53553391, 11.40394669, 9.62029106, 10.72030783, 14.01249442
21.48313292, 4.41588043, 5.44058820, 3.10241841, 12.00520720, 10.43551628, 8.08393469, 15.17563837
20.58943904, 3.62973828, 4.89897949, 2.70647372, 13.38936145, 8.87834444, 6.13392207, 12.83452375
18.47024634, 3.14245127, 5.07690851, 2.71569512, 15.09884102, 8.86848352, 7.23705741, 13.64367986
21.30492901, 4.26028168, 6.27893303, 2.93257566, 12.97015806, 9.02080928, 7.65506368, 16.57633856
20.85425616, 5.51135192, 6.85565460, 3.08625987, 12.60555433, 7.93095202, 6.98748882, 16.31716887
18.84409722, 4.86055552, 5.13565965, 3.08625987, 13.70492612, 9.28035560, 9.80433578, 16.99632313
21.67314006, 4.38748219, 3.77491722, 3.17017350, 15.26351860, 10.69462482, 10.78540681, 17.41407477
20.03684107, 6.21892274, 5.31507291, 2.87662997, 14.88623525, 9.61639225, 9.91967741, 16.02810032
23.49148782, 7.94040301, 10.77265056, 4.47772264, 12.61051149, 7.41451280, 8.45872331, 15.50483795
24.54943991, 6.72867000, 11.13216062, 6.07659444, 11.13665120, 7.24913788, 6.64830806, 12.65997630
19.18006778, 4.33589668, 8.24621125, 6.44980620, 10.88577053, 9.91715685, 7.78138805, 16.82780437
23.24112734, 4.42153819, 7.66159252, 5.13322511, 12.48098554, 10.89495296, 8.72782905, 16.65382839
23.37680474, 4.12916456, 8.61103943, 4.20119031, 12.19118534, 8.75642621, 8.66314031, 10.17718036
19.33649399, 4.95731782, 8.80198841, 4.29534632, 12.50199984, 10.26279689, 9.64235448, 11.51520734
16.96687950, 4.67439836, 7.77978149, 4.40170422, 12.27293771, 11.27497228, 9.00971698, 11.80677771
19.83116235, 3.42052628, 7.08343137, 4.99749937, 13.34072712, 10.17840852, 6.94442222, 10.86162971
23.98176391, 2.97909382, 5.39212389, 4.36176570, 14.18978506, 8.09629545, 6.53834842, 11.21048616
21.44353049, 2.74317334, 5.35023364, 3.99687378, 12.44989960, 9.45912258, 7.85175140, 9.25337776
15.74166446, 2.59807621, 4.47772264, 3.97177542, 9.90580638, 11.58663023, 7.19895826, 7.21456859
18.12939602, 2.56904652, 5.34789678, 3.74165739, 11.65975986, 10.31867240, 6.36985086, 11.45534810
20.96664017, 2.79284801, 6.45368112, 3.55668385, 14.09343819, 7.69415362, 7.45654075, 14.15803659
14.91559586, 2.62678511, 5.68770604, 3.40954542, 11.06458314, 7.39763476, 6.64266513, 10.36339713
15.04160896, 3.03315018, 5.26307895, 4.02802681, 10.48451239, 8.13326503, 6.25099992, 8.87130205
18.42009772, 3.04959014, 6.80624713, 4.82182538, 12.50999600, 7.45989276, 5.81807528, 10.80509139
20.68090907, 3.15039680, 5.90973773, 4.13823634, 10.59952829, 7.82304289, 5.96866819, 13.31915913
23.49787224, 3.18590646, 3.46049129, 2.99165506, 7.75241898, 10.42832681, 6.87022561, 16.77572651
21.86206761, 3.10241841, 4.52769257, 2.78388218, 8.70201126, 10.29441596, 6.56696277, 15.38343265
20.42486230, 3.06186218, 4.38178046, 2.54950976, 11.53798076, 11.44989083, 7.13091859, 11.80889495
20.11094230, 2.82400425, 4.38178046, 2.95381110, 13.18237460, 11.81312829, 7.68277294, 13.25990196
17.10409308, 2.61247010, 4.62871472, 3.03315018, 14.20475273, 8.07929452, 7.81824789, 13.70492612
16.25269208, 2.63153947, 3.55668385, 2.78388218, 12.61447581, 8.96242155, 7.72334125, 13.48795759
21.59976852, 2.72946881, 3.00000000, 2.55440795, 13.00480680, 9.02635031, 6.15426681, 14.56021978
23.92174743, 2.86356421, 3.32791226, 2.56417628, 12.45491871, 7.68765244, 7.00535509, 15.29297224
20.22992832, 2.93683503, 3.35037311, 2.94957624, 13.24386650, 9.62159031, 8.90084266, 18.58157690
16.64106367, 2.31840462, 2.67861905, 3.35037311, 16.64632091, 9.97371546, 8.45281018, 18.21400560
16.16168308, 2.57875939, 3.78483817, 4.38748219, 15.04243996, 10.60424443, 7.35527022, 13.31258803
18.16727828, 2.92403830, 4.27492690, 4.56070170, 13.16814338, 10.80162025, 7.98122798, 12.32882801
18.29822396, 2.94957624, 6.36003145, 4.29825546, 12.00937134, 9.34478464, 9.55771939, 13.71495534
20.78160244, 3.83079626, 8.43208159, 4.15030119, 11.61679818, 9.63976141, 10.19068202, 13.12059450
22.50000000, 3.78813938, 6.60113627, 3.21714159, 14.06324998, 9.71853898, 8.05915628, 13.48610396
20.79422997, 3.27871926, 4.99249437, 3.22102468, 13.14343943, 9.67470930, 6.50960828, 13.63726512
18.68890045, 3.32039154, 5.64358042, 3.36154726, 11.06119343, 10.06354808, 7.03206940, 15.15420734
14.61078369, 3.89551024, 7.23187389, 3.25576412, 11.49021323, 9.18830779, 8.18840644, 14.95743962
15.81296936, 4.08044115, 8.46463230, 3.73496988, 9.77241014, 8.86425406, 9.02358022, 12.26988183
16.62453007, 3.06594194, 7.65669642, 3.66742416, 14.77836256, 8.83742044, 9.08019824, 12.60257910
17.05505790, 3.00416378, 6.53834842, 3.40587727, 15.47659523, 9.15423399, 8.02963262, 13.74863630
18.03399567, 3.15436206, 6.82458790, 3.01247407, 12.71023210, 10.20049018, 7.95141497, 12.51698846
16.87601849, 2.72946881, 7.43975806, 3.12649964, 12.34706443, 9.76985159, 9.21004886, 10.30533842
15.16904743, 3.09434969, 7.57462870, 3.95600809, 11.18257573, 9.76601249, 8.97775027, 9.71853898
13.00865097, 3.91790760, 8.71206061, 3.90512484, 12.57974563, 10.19190856, 7.97182539, 11.81207010
15.55313473, 3.73831513, 9.36883130, 3.87620949, 12.40262069, 9.55510335, 7.45989276, 12.68956264
16.75037313, 3.53199660, 9.37416663, 3.92746738, 11.07813161, 8.62119481, 9.08295106, 11.93209956
16.36230424, 3.62629287, 8.73784871, 3.28633535, 8.94147639, 9.94736146, 8.45872331, 12.53295655
17.21844941, 3.63661931, 6.84835747, 2.97069016, 8.02340327, 12.78866686, 5.82880777, 13.98660073
16.35466294, 3.62973828, 6.43234017, 2.91976026, 8.16853720, 12.78866686, 8.84872872, 14.57995199
16.79657703, 3.61593695, 6.25899353, 2.51992063, 9.38749168, 12.20348311, 10.24695077, 12.26988183
21.93798076, 3.41686991, 4.00936404, 3.22490310, 12.40262069, 12.49299804, 8.48233458, 9.21276289
22.67928570, 2.97909382, 6.16644144, 3.51069794, 11.94571053, 11.25944048, 6.91556216, 10.28469737
22.56656819, 2.91118533, 7.20763484, 2.92403830, 10.66184787, 11.23498999, 7.63380639, 12.43684043
25.13264809, 4.22492603, 5.90550591, 3.49284984, 11.97288603, 11.12317401, 8.94846356, 14.00624861
22.76290843, 4.75920161, 4.51109743, 3.38747694, 12.98460627, 9.51052049, 8.84448981, 13.17573527
24.54383833, 3.52845575, 3.00416378, 2.86356421, 14.83408238, 9.33809402, 9.26417832, 13.23442481
26.46743282, 3.22490310, 2.73404462, 2.83725219, 13.90773166, 9.21411960, 8.39642781, 13.80941708
20.17733877, 3.42417873, 2.61247010, 2.40312297, 10.96129554, 11.14001795, 6.87204482, 10.87658034
14.81215717, 3.22102468, 2.43413229, 2.23606798, 9.88306633, 10.49166336, 7.00892288, 10.99659038
15.72418519, 3.02489669, 2.35584380, 2.87662997, 10.40913061, 8.52496334, 7.53325959, 11.52714188
19.81098180, 3.06186218, 2.56904652, 3.21325380, 11.88486432, 11.29712353, 8.12249962, 12.72890412
25.92730221, 3.59513560, 2.78388218, 3.07814879, 12.50699804, 11.64366781, 8.21735967, 13.83744919
26.51226131, 5.43829017, 8.07774721, 4.03422855, 13.15294644, 9.42204861, 8.45576726, 13.40895223
21.65640783, 5.26307895, 9.01387819, 4.02181551, 14.54046079, 10.94531863, 9.85520167, 15.60288435
17.96385259, 4.08962101, 4.88108594, 2.63153947, 12.56781604, 13.09961832, 9.62418828, 14.63557310
20.48169915, 4.71963982, 2.80624304, 2.42383993, 11.12766822, 13.20984481, 8.26589378, 11.99166377
24.49438711, 4.63141447, 7.29211903, 2.86792608, 12.19528597, 11.77709642, 9.50131570, 13.01537552
22.52165624, 4.28369000, 8.15015337, 3.18590646, 10.62544117, 9.89823217, 9.00971698, 12.70629765
19.06698718, 4.35603030, 6.91013748, 3.26726185, 9.45780101, 11.09617051, 6.50960828, 11.58663023
22.81501698, 4.29534632, 7.53491871, 3.05368630, 9.44986772, 11.48368408, 6.75277721, 12.40765893
22.59756624, 3.76828874, 7.03206940, 2.65988722, 10.40192290, 10.73778376, 6.28689112, 11.79936439
17.35511452, 3.78813938, 7.32973397, 2.44438131, 14.09521195, 8.58632634, 6.79153885, 10.92474256
13.49444330, 3.95916658, 8.52936105, 3.07814879, 15.06983742, 7.20416546, 7.18505393, 12.24846929
13.76226726, 4.96739368, 8.29608341, 3.47491007, 12.81210365, 8.54254061, 6.22695752, 11.56935608
14.53960109, 5.30565736, 6.12576526, 2.97069016, 10.87198234, 12.52796871, 6.29483916, 11.37431317
23.61778991, 4.72493386, 6.55171733, 2.68328157, 12.27090054, 12.94507628, 6.33442973, 15.00249979
26.10459730, 4.66100847, 8.83176087, 2.91976026, 13.05947932, 9.36616250, 6.29682460, 14.39704831
19.34295737, 5.24880939, 9.71210585, 3.36154726, 16.27958845, 12.17887515, 8.61103943, 15.44263579
20.45727255, 6.18061486, 11.87644728, 4.39602093, 16.74365551, 13.36974196, 9.05262393, 15.13852701
23.18404624, 6.49615271, 10.61013666, 4.02181551, 13.36506640, 11.13103769, 7.73304597, 12.13878083
24.43102536, 5.28913982, 7.99531113, 3.62973828, 12.21986088, 10.95673309, 9.00416570, 15.52981004
23.18943725, 4.73550420, 9.07606743, 3.98748041, 16.14775526, 11.10405331, 8.17465596, 14.68928181
20.25771458, 5.99166087, 8.95823643, 3.54612465, 16.13071604, 11.67368836, 7.47997326, 13.84647970
20.51158209, 6.00000000, 10.23230179, 3.77491722, 10.04863175, 11.57691669, 8.00156235, 12.67970820
18.74566617, 5.07690851, 9.30994092, 3.51425668, 9.62288938, 10.12422837, 9.37149935, 11.17139204
14.17303778, 5.41294744, 7.35866836, 2.88530761, 11.59741350, 9.55117794, 10.51427601, 11.95826074
17.16828471, 6.40312424, 8.97496518, 3.91152144, 13.65009157, 9.73139250, 10.18086440, 10.91100362
17.71722326, 5.52946652, 9.06504275, 3.89230009, 11.74734012, 9.53939201, 8.64869932, 11.34460224
14.65520385, 5.28913982, 7.84219357, 3.32415403, 10.59598981, 10.37665649, 6.56696277, 12.13878083
21.33248696, 5.55202666, 8.33366666, 3.54964787, 12.41974235, 11.48150687, 7.32802838, 12.87050893
24.24252462, 4.20119031, 8.65158945, 3.49642675, 12.75049019, 10.90412766, 8.97496518, 13.46662541
22.25589809, 4.96990946, 9.03465550, 3.75832409, 13.82298810, 11.32585538, 9.43398113, 13.68849882
19.40940494, 5.26545345, 9.79413090, 4.11703777, 13.67022311, 11.64796119, 7.71038261, 16.00859144
16.46359620, 5.07937004, 9.22225569, 3.98434436, 13.06904740, 9.60078122, 7.08166647, 15.13357195
18.72965563, 5.61471282, 9.00555384, 4.10791918, 13.78676902, 8.12711511, 7.98122798, 11.60387866
18.97037164, 4.77493455, 7.56141521, 3.92746738, 14.46374779, 9.73139250, 7.57297828, 11.90693075
17.75598491, 4.33589668, 6.79521891, 3.39116499, 14.16509795, 11.85854123, 7.06753139, 11.91742422
15.91854265, 3.98748041, 7.50666371, 3.82426464, 11.45316550, 12.24540730, 8.59069264, 10.44988038
16.18332475, 3.97492138, 5.20336430, 3.38378486, 9.78647025, 9.82725801, 10.64072366, 12.19015997
20.13578903, 4.76707457, 5.54752197, 3.05368630, 9.54463200, 8.63857627, 10.13286731, 13.29943608
20.12771721, 4.96739368, 6.98032951, 3.44238290, 9.21276289, 9.76217189, 8.12711511, 11.66190379
19.17028951, 5.17928567, 5.62805473, 3.00416378, 12.73577638, 8.67899764, 6.73238442, 11.47606204
19.42099380, 4.50832563, 5.74891294, 2.94108823, 13.06139349, 9.38083152, 8.12865302, 12.38850273
22.98749660, 4.76182738, 7.88194139, 3.67083097, 10.55461984, 12.58967831, 9.88053642, 13.00961183
24.93140590, 4.91426495, 7.44311763, 3.63318042, 10.68994855, 13.40149245, 8.80482822, 14.80118239
21.73303936, 4.17432629, 6.58596994, 3.39116499, 12.61150269, 10.13286731, 7.31607818, 14.77582485
22.22442350, 4.15632049, 6.50192279, 3.32415403, 12.30954914, 8.67611664, 6.94082128, 12.27599283
19.03614982, 4.39033028, 4.96739368, 3.05368630, 9.73396117, 10.37665649, 7.91043614, 12.47196857
13.95170241, 5.05222723, 3.92109679, 2.87228132, 11.87013058, 11.06797181, 8.75785362, 13.25518766
15.93894601, 4.37035468, 3.32415403, 2.74772633, 14.28460710, 10.84550598, 7.96555083, 11.13889582
15.28643189, 3.89230009, 2.89395923, 2.46981781, 11.89747872, 9.74037987, 7.49333037, 11.13103769
22.26263686, 3.94017766, 2.86356421, 2.52487623, 10.23596600, 10.48093507, 8.37854403, 12.56881060
24.91234634, 3.44963766, 3.04138127, 3.24422564, 13.12249976, 12.07062550, 8.04207685, 11.77603499
21.17073452, 3.74499666, 2.91547595, 3.36526373, 12.65108691, 11.19709784, 6.99106573, 11.86907747
20.04183125, 4.72757866, 3.35782668, 3.15832234, 11.29933626, 9.26822529, 6.51920241, 11.57583690
18.13628959, 5.19615242, 3.25576412, 3.31662479, 14.84082208, 9.44722181, 5.44518136, 9.35815153
20.17795827, 5.12103505, 2.80624304, 3.22490310, 16.56351412, 10.61838029, 5.54752197, 9.52627944
19.62141687, 4.77755167, 3.10644491, 3.14642654, 15.10877229, 9.25877962, 7.54155156, 11.20937108
22.28284093, 3.99687378, 2.88097206, 3.04959014, 13.81213235, 9.18422561, 7.97652807, 12.62041996
22.76181012, 3.78153408, 2.78836870, 2.94108823, 13.11201739, 10.15381702, 8.56446145, 12.44387399
16.11521021, 3.76828874, 2.97069016, 3.36526373, 11.52063366, 10.18331969, 9.75448615, 11.45534810
17.96106901, 4.09878031, 2.75680975, 3.68103246, 12.30142268, 11.69080836, 9.58775260, 11.82159042
18.50202692, 4.32723930, 2.80624304, 3.56019662, 13.40615530, 12.36527396, 8.82751381, 9.70180396
15.18140310, 4.30116263, 3.05368630, 3.59513560, 12.65009881, 12.08821740, 8.04673847, 7.91043614
15.56839748, 4.55521679, 2.91976026, 3.53553391, 12.46695632, 12.06441047, 7.23878443, 13.17099085
16.84710658, 7.06753139, 7.21110255, 3.14245127, 12.83062742, 10.95559218, 7.48498497, 14.47152376
18.22909762, 9.47496702, 12.68857754, 4.85025773, 13.37441588, 10.84204778, 8.40981569, 11.91217864
20.47681616, 8.24014563, 12.75637096, 5.40601517, 12.89088825, 11.57151675, 7.37563557, 11.69080836
19.76802975, 5.82022336, 9.96242942, 4.50555213, 13.84286820, 9.88559558, 8.46315544, 12.32172877
21.04340752, 6.46335826, 9.20326029, 3.99061399, 13.16244658, 9.87167666, 8.85861163, 14.59280645
23.68016047, 7.02139587, 8.72209837, 3.98120585, 12.61645751, 8.95125689, 7.43807771, 13.28062499
20.14882131, 6.13595958, 9.27766134, 4.42153819, 12.19631092, 7.71200363, 6.85383105, 9.93227064
19.88152409, 5.45435606, 7.41282672, 4.07430976, 14.30821442, 7.47663026, 6.46142399, 10.05484958
17.34574876, 5.50000000, 5.24166004, 3.97492138, 16.97129930, 6.06836057, 9.85139584, 10.48808848
19.39716474, 4.93710441, 8.66746791, 4.13521463, 15.93345537, 10.83512806, 9.62418828, 10.67122299
25.21061284, 4.27200187, 9.72239682, 3.58120092, 14.26621884, 11.27940601, 8.14861951, 11.76860230
21.87521428, 4.66636904, 8.31564790, 3.52491135, 12.58471295, 9.98624053, 7.85811682, 12.69448699
17.93599732, 4.89642727, 7.90727513, 3.76828874, 13.29285522, 10.07720199, 6.66520817, 12.08511481
19.19374898, 4.70903387, 6.38357267, 3.05368630, 11.89222435, 11.46080276, 7.07990113, 11.91007976
24.94944889, 6.26697694, 5.08183038, 3.00000000, 10.24695077, 11.89012195, 7.15367039, 14.79780389
23.14573395, 6.99642766, 6.02287307, 3.47491007, 13.54621718, 9.21411960, 6.31862327, 14.62788433
21.20082546, 6.78785680, 8.73212460, 3.82099463, 12.64219127, 10.31624932, 6.72123501, 14.92899863
20.40343108, 6.07247890, 9.70438045, 3.72155881, 14.58166657, 11.51520734, 7.25775447, 15.64528683
20.57364819, 5.80517011, 8.93728147, 4.12007281, 15.15915565, 10.07223908, 6.96419414, 13.12249976
22.18839787, 6.14613700, 8.00936951, 3.99374511, 12.67181913, 6.97674709, 7.53160010, 13.71951165
21.96986573, 5.78791845, 6.31466547, 2.84165445, 13.09484631, 9.62548700, 7.41114026, 13.98034334
21.36293519, 5.61025846, 5.32212364, 2.96647939, 13.83925576, 12.69448699, 7.07460246, 15.23318745
26.75397167, 5.89279221, 6.15020325, 3.44238290, 14.93067313, 11.11530476, 8.20365772, 14.86438697
26.20543837, 6.15629759, 8.25832913, 4.10791918, 15.89103521, 8.66314031, 9.35013369, 14.21091130
22.50777643, 5.71620503, 8.01249025, 4.09572948, 14.31956703, 8.54546663, 8.90224691, 15.52417470
27.51499591, 5.22254727, 7.22149569, 4.12613621, 12.45692578, 7.07460246, 8.78777560, 15.43939766
23.64000846, 4.72228758, 7.70227239, 4.43565102, 16.82483284, 7.32290926, 9.23985931, 14.42913719
20.57668584, 4.59347363, 7.70713955, 3.90512484, 16.11676146, 8.47053717, 8.72496418, 13.39496174
24.60538559, 6.27295784, 7.41114026, 3.51781182, 14.45250843, 10.13286731, 9.09257939, 13.14153720
28.46532979, 7.36376263, 7.50666371, 3.89230009, 15.37367881, 10.51546480, 9.06504275, 12.17066144
23.72867464, 6.19071886, 6.71751442, 3.86652299, 12.80527235, 8.44541296, 8.93867999, 10.88002757
19.47626761, 4.83218377, 6.29682460, 3.51781182, 13.29661611, 8.81476035, 9.01110426, 10.96357606
26.02354703, 6.87022561, 6.43234017, 3.62284419, 14.65520385, 8.75499857, 7.52495847, 14.88455575
23.63101775, 7.63216876, 5.28204506, 4.10791918, 13.07478489, 9.50789146, 8.38152731, 15.39155613
19.37137063, 5.73149195, 4.00312378, 3.77491722, 11.06232344, 10.95331000, 8.31865374, 13.79402044
20.77979788, 4.22196637, 2.51992063, 3.01247407, 12.85204264, 10.51070882, 7.68277294, 16.18486948
17.75387282, 4.39602093, 3.09838668, 2.95381110, 14.39357496, 12.55189229, 7.63708059, 16.14852934
14.82143718, 4.64758002, 4.41871022, 3.25192251, 13.68027777, 12.40765893, 6.51920241, 13.86181806
18.08936151, 4.11096096, 4.53596737, 3.12249900, 11.13552873, 9.39414711, 6.39921870, 16.47877423
24.57742867, 4.86826458, 4.00624512, 2.85482048, 11.62325256, 10.19436119, 6.95521387, 15.03579063
21.86664126, 4.71168760, 3.84057287, 3.75832409, 22.56546033, 9.45912258, 6.22695752, 12.41571585
12.99903843, 3.38747694, 3.78483817, 3.93064880, 22.41205033, 10.08216247, 5.64136508, 14.37619560
15.42076522, 4.05894075, 4.37035468, 3.48568501, 14.28723206, 10.87083253, 5.46580278, 12.27395617
21.67544694, 4.01559460, 4.68774999, 4.05894075, 17.22425615, 9.41674041, 4.63950428, 10.26523258
20.84586290, 4.30116263, 4.89642727, 4.06816912, 20.01999001, 8.27798285, 8.90786170, 12.59364919
16.67258228, 4.96487663, 4.41021541, 2.90258505, 18.93409623, 7.25086202, 9.59296617, 14.22322045
19.11478485, 4.68774999, 3.72155881, 2.98328678, 15.29542415, 9.43530604, 7.06576252, 12.64317998
20.47925780, 3.95600809, 4.02492236, 3.30907842, 13.39029499, 8.99861100, 7.11688134, 11.71110584
18.55262785, 4.23379263, 3.52845575, 3.02489669, 13.11964176, 8.82326470, 7.43303437, 11.89432638
19.96747355, 4.06509532, 3.50356961, 2.72029410, 14.43086969, 9.40478602, 9.51577637, 12.09131920
20.33900194, 3.73496988, 5.03736042, 4.30116263, 16.53178756, 7.63216876, 10.48689659, 13.12154716
18.37729577, 4.51109743, 9.59426912, 5.59687413, 18.00486045, 6.21691242, 8.33066624, 11.98019199
22.19121448, 5.37819672, 9.22225569, 4.95983871, 17.20900927, 10.00374930, 7.05336799, 12.23825968
25.83698899, 5.67009700, 5.22494019, 4.15331193, 15.67801008, 11.51412176, 7.15367039, 15.68438714
22.83254257, 4.30406784, 5.02742479, 3.96862697, 14.35879521, 9.88685997, 6.76572243, 18.52970588
22.30694959, 3.67423461, 5.98122061, 4.30697109, 13.62626141, 9.76729236, 8.18993284, 17.28076966
26.67114546, 4.23379263, 7.47161295, 5.09656747, 16.41417071, 8.09011743, 9.81580358, 14.84755872
24.78507615, 3.88908730, 6.30674242, 5.21536192, 15.69235483, 7.63380639, 9.95740930, 15.86269208
22.36123879, 3.13049517, 4.27784993, 4.54147553, 17.01984136, 9.23579991, 8.94427191, 16.24807681
24.23685211, 4.50277692, 3.19374388, 4.23969339, 18.43569906, 10.60660172, 8.06535802, 13.98213145
24.84703202, 5.07690851, 3.91471583, 4.02181551, 17.70593121, 9.63068014, 7.84378735, 11.19709784
22.38358774, 4.57438520, 5.02742479, 3.73496988, 18.08037610, 8.58632634, 8.19908531, 12.86079313
17.13913650, 4.65832588, 5.04727649, 3.53199660, 15.77973384, 7.90094931, 8.55423872, 12.82380599
16.30644045, 4.70106371, 5.15509457, 3.79802580, 14.45683229, 8.08857219, 10.44868413, 11.25833025
18.69826195, 4.85025773, 4.88364618, 4.20713679, 16.17328043, 10.32472760, 10.44748774, 10.71447619
18.82817038, 4.60163015, 4.08044115, 3.82099463, 18.12939602, 9.49868412, 8.42763312, 13.46662541
16.76752814, 4.44128360, 4.57711700, 3.66742416, 17.41479256, 8.16088231, 7.28868987, 14.69523732
18.23732437, 4.94974747, 4.78539445, 4.02492236, 14.35705402, 9.58514476, 8.26286875, 12.95279893
20.45543937, 4.96990946, 3.98434436, 3.96232255, 20.17176244, 9.23850637, 9.30591210, 12.35718415
18.47836573, 4.29534632, 4.10791918, 4.14427316, 23.08841701, 6.56505902, 9.96995486, 10.32593821
16.64031250, 4.09572948, 3.97177542, 4.07737661, 18.82285844, 10.31746093, 9.42337519, 9.84377976
16.61550481, 4.01870626, 5.63693179, 3.35410197, 16.10201851, 11.64581470, 7.17635005, 12.84815162
21.63792966, 5.57897840, 11.41380743, 4.20416460, 14.09964539, 9.04848054, 8.76926451, 12.98460627
22.50944246, 5.89067059, 12.75539102, 5.10392006, 11.89327541, 8.68907360, 10.51070882, 11.93314711
22.96519105, 4.85283422, 8.92608537, 4.70903387, 11.82476215, 11.62325256, 10.01998004, 12.85009728
21.38691189, 4.65295605, 7.09048658, 3.72491611, 12.20040983, 12.29125706, 9.54070228, 12.00728945
14.84419078, 4.85540935, 7.83581521, 3.75499667, 13.10343466, 9.09120454, 9.20054346, 10.58182404
14.48533741, 4.78016736, 7.80384521, 4.67172345, 12.92284798, 9.74166310, 8.14094589, 12.76224902
15.88946192, 4.39602093, 6.74907401, 4.32145809, 13.96960987, 10.48808848, 9.00555384, 12.93638280
16.31563667, 4.12310563, 5.09656747, 3.35410197, 17.27715254, 9.79157801, 8.39791641, 10.86162971
13.56834551, 3.36154726, 4.47493017, 3.18198052, 14.84334868, 10.29198717, 6.43039657, 10.83512806
14.27848031, 3.80131556, 6.33837519, 3.62973828, 12.45090358, 10.67239430, 6.89565080, 14.06947049
18.18653348, 4.07124060, 8.62409416, 3.38747694, 12.36729558, 10.34408043, 7.67626211, 15.25778490
18.61451047, 4.19225476, 8.94706656, 3.09030743, 12.04055647, 10.93389226, 7.21456859, 12.79355306
16.86712779, 5.16720427, 7.25086202, 3.45687720, 12.79550702, 10.71564277, 8.53668554, 12.32781408
16.78615501, 5.21775814, 5.89067059, 3.47850543, 11.43896848, 7.81664890, 8.93728147, 13.55728586
17.01837243, 4.60977223, 5.62805473, 3.78813938, 11.55097398, 6.59924238, 7.58617163, 14.84166433
14.10053190, 3.84707681, 5.55877684, 3.36154726, 12.16449752, 8.68475676, 8.77781294, 14.92062331
17.77709200, 2.99583044, 6.16846821, 3.16227766, 10.66653646, 11.82053298, 8.19298480, 15.94286674
21.33717413, 2.91118533, 7.03206940, 3.39484904, 12.29430763, 11.80042372, 7.48164420, 14.83997978
18.90833150, 2.81957444, 6.56886596, 3.27871926, 13.60606482, 10.02247474, 9.08570305, 13.54990775
17.81502175, 3.15436206, 7.85652595, 2.78388218, 11.97601770, 8.15628592, 8.92048205, 13.41827113
18.44315591, 2.98328678, 7.22841615, 2.38222585, 10.50714043, 7.35017007, 7.98435971, 10.54395561
15.62129956, 2.94533530, 4.68774999, 2.60288302, 8.89381808, 7.11688134, 6.76017751, 11.20602517
15.01415998, 3.07408523, 6.54025993, 2.44948974, 11.66511894, 4.54147553, 6.22695752, 12.99903843
22.78431478, 2.82842712, 9.15969432, 2.46475151, 14.56193668, 6.35609943, 8.48822714, 12.48298842
23.72129845, 5.95608932, 16.37604958, 4.97995984, 14.05169029, 7.04982269, 7.74758027, 10.85587399
17.10263138, 6.38748777, 15.62689988, 5.27730992, 14.97163986, 7.47997326, 6.10122938, 11.25721991
18.11353085, 4.21604080, 7.17983287, 3.07001629, 12.92961716, 9.76985159, 7.60427511, 14.56021978
21.19905658, 3.39484904, 8.98749131, 3.23651047, 10.42113238, 11.79194640, 10.15627885, 15.31747368
18.60443496, 9.13236005, 24.71234509, 8.73069299, 11.95407880, 17.12892291, 13.23820229, 12.96630248
28.21391501, 12.00208315, 31.76515386, 9.68504001, 12.67083265, 18.16452587, 11.41818725, 13.53513945
30.86138364, 9.03603896, 27.64823683, 7.59605161, 13.19090596, 16.48408323, 8.57612966, 15.04991694
24.65410716, 6.69141241, 22.54051907, 7.83102803, 13.45826883, 14.46979613, 10.10816502, 14.55420901
22.50999778, 6.73052747, 19.24577876, 7.26119825, 13.60882067, 11.10517897, 10.30655131, 13.75409030
20.63795048, 5.77711000, 14.64155046, 5.33385414, 14.44818328, 12.28820573, 9.29112480, 14.13064047
21.12285492, 5.61471282, 15.56197288, 6.08892437, 15.85323311, 12.89185790, 7.84856675, 14.31345521
21.98067333, 6.75092586, 18.93409623, 7.44983221, 12.73086800, 11.49673867, 8.64436232, 13.56558145
20.60279107, 6.89927532, 19.44029321, 6.48074070, 11.19821414, 10.42712808, 8.96381615, 13.13963470
17.09678332, 6.14003257, 21.65756219, 6.17251974, 12.77301844, 14.36749804, 8.42021377, 13.28815262
16.02810032, 6.93181073, 22.12860140, 7.07106781, 14.43086969, 13.42851444, 10.07844234, 14.00535612
16.99117418, 6.89383783, 18.07622748, 6.70634028, 13.44711865, 8.22800097, 10.65950280, 14.44991349
16.68981725, 5.53850160, 14.32654878, 4.76182738, 11.67475910, 8.02184517, 9.26417832, 13.17288883
14.94322589, 5.55427763, 12.18400591, 4.29534632, 14.84755872, 11.02950588, 7.91833316, 13.38095662
16.94918877, 5.64358042, 10.28226629, 4.23674403, 15.41671171, 10.82127534, 8.42614977, 12.20143434
17.33060876, 4.52216762, 10.64894361, 3.79473319, 15.48466984, 6.99285349, 9.11866218, 11.87434209
18.01527130, 4.73550420, 11.01589760, 3.55316760, 13.60422728, 8.96102673, 8.30361367, 14.67991826
18.75633226, 5.03736042, 9.87800587, 3.60901649, 13.68393218, 12.11713663, 7.56141521, 13.97318861
18.44722201, 3.96862697, 6.19475585, 3.52136337, 15.19786169, 12.39455526, 8.60377824, 12.54990040
17.15444549, 4.22788363, 6.80073525, 3.56721180, 14.16686274, 10.43910916, 8.52203027, 12.67970820
15.07232563, 4.49444101, 7.63544367, 4.17432629, 14.98415830, 9.32067594, 7.81664890, 13.58123706
19.66278210, 4.01559460, 7.42462120, 3.92109679, 12.97593927, 8.18077013, 9.58514476, 14.25920755
20.24598726, 3.54964787, 5.85021367, 2.77938842, 14.31345521, 8.64725390, 10.41993282, 14.16774506
18.23184028, 3.14245127, 4.81144469, 3.24807635, 15.46366709, 11.31591799, 8.42763312, 11.20156239
22.04824256, 3.82099463, 6.50960828, 3.74499666, 13.68575902, 10.82127534, 7.06929982, 12.34908904
19.63415392, 3.84707681, 5.63693179, 3.09838668, 13.07287268, 7.51332150, 8.27194052, 15.08890321
16.58237016, 3.32039154, 2.75227179, 3.08220700, 12.66984609, 8.90084266, 9.30591210, 11.98853619
17.04406055, 3.82753184, 3.34664011, 3.02076149, 12.07683733, 10.90298124, 9.66953980, 11.06119343
19.65896742, 3.87620949, 3.70135110, 2.65518361, 14.22497803, 9.75961065, 7.72172261, 13.94094688
21.32662655, 3.19374388, 3.78483817, 3.12649964, 15.64288976, 7.90885580, 7.04804938, 16.62979254
23.36450299, 2.98747385, 3.69797242, 3.17017350, 14.14301948, 9.24256458, 8.38749069, 15.23728979
26.51744709, 3.81772183, 3.18198052, 2.89827535, 15.46205032, 10.49047187, 9.87041033, 12.88215820
24.38903442, 3.92746738, 2.97069016, 2.75227179, 14.52239650, 11.58878768, 9.46440701, 14.76905549
22.85661830, 2.85919569, 2.87662997, 2.22485955, 12.14084017, 11.25388822, 9.78135982, 14.97664849
19.24902595, 3.30151480, 3.78483817, 2.63153947, 11.67582973, 9.27092228, 9.91463565, 14.45769691
22.57487541, 3.47491007, 4.42153819, 3.28633535, 11.51846344, 7.81664890, 8.39196044, 16.30797351
25.32933082, 3.08625987, 3.88587185, 3.78483817, 12.71121552, 6.45948914, 7.82783495, 17.87666076
23.53189325, 3.20156212, 3.22490310, 4.07124060, 15.31992167, 7.66322386, 6.30079360, 14.54647724
21.91346618, 3.43874977, 3.50356961, 3.79802580, 15.10380747, 10.07099796, 6.67457864, 10.78308861
20.33838735, 3.54259792, 4.01559460, 3.30529878, 14.36140662, 11.63615057, 7.61248974, 12.08201142
23.49840420, 3.44238290, 3.66401419, 3.08625987, 14.92146105, 11.49673867, 8.82609767, 13.80217374
22.20529216, 3.24037035, 4.03112887, 3.07001629, 14.22937103, 11.06684237, 8.51909620, 15.81692132
21.67256330, 3.02489669, 4.18330013, 2.90688837, 12.56483187, 9.57862203, 8.23407554, 17.08873898
19.53202498, 3.77160443, 3.84707681, 2.69258240, 12.32071427, 10.28226629, 9.48419738, 15.44830088
15.60368546, 4.18628714, 3.32415403, 2.12132034, 12.17579566, 9.51052049, 8.25832913, 16.64632091
17.47855829, 3.69797242, 3.50000000, 3.02076149, 14.66202578, 9.16242326, 7.60756203, 16.96835290
21.36293519, 3.48926926, 4.50000000, 3.84707681, 15.73213272, 9.31933474, 8.19756061, 13.99017512
21.36878565, 3.72155881, 4.00000000, 3.34290293, 14.32829369, 10.48212765, 8.94007830, 15.08973161
19.09712020, 3.43874977, 2.97909382, 2.76134025, 16.03979426, 12.75637096, 9.95489829, 15.99062225
21.71923111, 2.90258505, 3.26343377, 3.39116499, 15.83587699, 11.66190379, 9.09670270, 13.37721944
21.68640127, 3.06594194, 3.23264598, 3.61593695, 14.74449050, 11.56719499, 7.75403121, 10.81434233
20.36050098, 3.29393382, 2.55929678, 3.00000000, 17.03305610, 10.79467461, 8.88819442, 11.90168055
22.91015059, 3.73831513, 2.69722079, 2.51495527, 15.81138830, 10.52615789, 9.09532847, 12.08408044
22.19966216, 3.91152144, 3.27108545, 2.89395923, 11.63829884, 9.83742853, 8.21127274, 10.70513895
16.47573974, 3.30529878, 3.23651047, 3.14642654, 12.66195088, 8.03585714, 8.02340327, 12.99326749
17.86546949, 3.58120092, 2.89395923, 2.82400425, 13.60882067, 10.16120072, 8.09938269, 14.58338095
20.84586290, 3.82753184, 2.77488739, 2.59326050, 14.24692949, 13.07287268, 7.29897253, 12.62438117
16.54614759, 3.29013678, 3.45325933, 2.73404462, 13.32291259, 11.82476215, 7.05513997, 9.94107640
12.15627410, 3.11849323, 3.44238290, 3.10644491, 13.86632612, 9.56425637, 8.20975030, 9.51446268
15.35740864, 3.47491007, 2.50000000, 2.98747385, 15.41671171, 11.19598142, 9.35815153, 11.64581470
16.51968523, 3.48209707, 2.60768096, 3.19765539, 13.75499909, 11.23832728, 9.11180553, 11.15571602
16.23268308, 3.36154726, 3.19765539, 3.73496988, 11.71110584, 8.46610891, 6.78048671, 12.22599689
15.38993177, 3.45687720, 3.85356977, 3.44601219, 10.94074952, 5.96238207, 6.34231819, 12.45291131
14.25833090, 3.62284419, 3.71483512, 3.10644491, 12.75539102, 8.47201275, 7.76369757, 10.47019580
16.37452289, 3.70135110, 2.85482048, 2.85043856, 12.23110788, 9.90075755, 8.74356907, 11.93524193
17.17556404, 2.91118533, 2.83284309, 2.97909382, 13.04990421, 8.72066511, 8.65303415, 12.35819566
19.27303816, 2.77938842, 3.15436206, 3.25576412, 14.51378655, 9.22767576, 9.23444638, 13.21268330
19.33067510, 3.27490458, 2.74772633, 2.71108834, 14.67480835, 10.80046295, 10.50714043, 14.67651185
17.19011344, 3.43511281, 3.01662063, 2.95381110, 13.56465997, 9.81580358, 10.19926468, 14.86186395
15.27416119, 3.24037035, 3.18982758, 3.24422564, 12.72006289, 9.63197799, 8.96660471, 15.92717803
14.18273598, 2.79732015, 3.52136337, 3.04138127, 17.47355144, 10.43072385, 9.35815153, 14.41006593
15.30767781, 3.05368630, 3.28633535, 2.73861279, 17.64794606, 9.03327183, 8.91908067, 12.22190656
17.53852901, 3.22877686, 2.07364414, 2.92403830, 14.78597308, 8.82609767, 7.59275971, 10.84665847
17.47426679, 3.22102468, 2.31840462, 2.77037904, 12.33490981, 9.39680797, 7.83102803, 9.56817642
14.75550745, 3.06594194, 2.95381110, 2.36643191, 12.89961240, 8.74499857, 7.17460800, 10.18086440
13.46476884, 3.15832234, 3.52845575, 2.82842712, 13.49536958, 9.12140340, 8.74356907, 11.04649266
16.01873903, 3.16227766, 3.34290293, 2.58843582, 11.15459547, 9.98123239, 9.63587048, 13.49166409
19.11020670, 3.02902625, 4.02802681, 2.23047080, 9.52759151, 9.23309266, 9.20190198, 14.10939403
19.98749609, 3.79473319, 6.50192279, 2.70185122, 12.12435565, 7.18505393, 8.72353140, 15.04659430
22.72663635, 3.82426464, 8.02496106, 3.42052628, 15.18798868, 8.72926114, 7.19027120, 14.80709289
22.43880567, 3.60208273, 7.00357052, 3.42782730, 15.84455743, 11.10292754, 8.30210817, 13.83925576
20.39117456, 4.16233108, 6.05185922, 3.27108545, 16.42863354, 12.40866633, 9.07331252, 13.75590782
24.22189093, 3.76497012, 5.79439384, 2.96226265, 15.82798155, 11.70469991, 7.31949452, 13.03456942
23.62837278, 3.26343377, 6.02702248, 2.68328157, 12.45792920, 10.93960694, 6.87204482, 13.45641111
21.04875293, 4.10182886, 6.97853853, 2.94108823, 13.48239593, 10.96813567, 7.20069441, 14.92564906
19.29702050, 3.99374511, 7.28868987, 3.46049129, 14.10053190, 8.78635305, 8.44985207, 15.04327092
15.88316719, 3.39116499, 7.33484833, 4.19821391, 13.83473888, 7.26464039, 8.66458308, 12.53993620
16.94254999, 3.33166625, 7.76369757, 4.05585996, 13.92030890, 7.95927132, 6.62193325, 11.65547082
19.63288058, 3.38747694, 6.43816744, 3.31662479, 12.73283158, 9.32469839, 6.60492241, 12.92865035
21.68294260, 4.00312378, 5.69649015, 3.07408523, 12.56682140, 10.39591266, 8.69338829, 11.53906409
17.85147053, 4.04042077, 5.83309523, 2.82842712, 10.36339713, 10.08588122, 8.93867999, 11.27497228
14.19859148, 4.54422711, 5.36190265, 2.78388218, 12.17990148, 8.55862138, 7.67300463, 13.08529709
16.12529070, 5.47494292, 5.87367006, 2.87228132, 13.00000000, 11.70149563, 6.70261143, 12.35819566
16.34778272, 5.03984127, 6.49422821, 2.85919569, 11.79936439, 12.75441100, 5.90762220, 11.58770901
18.51958423, 4.33301281, 7.09929574, 3.16227766, 12.91413954, 9.82598596, 7.00357052, 13.39776101
17.93739111, 4.92950302, 5.54752197, 3.30151480, 13.76226726, 7.92464510, 6.96239901, 13.88704432
11.93000419, 4.83218377, 3.68103246, 2.91976026, 11.68225150, 8.07929452, 8.09629545, 11.49130106
9.85393322, 4.30697109, 3.16227766, 2.61725047, 10.63837394, 9.46572765, 9.08707874, 9.21547611
19.48204301, 4.33877863, 3.35037311, 2.85919569, 12.46093897, 7.75564311, 8.72353140, 13.18427093
21.29612641, 3.86975451, 3.66742416, 2.88097206, 13.36693682, 8.80340843, 9.65012953, 15.29869275
18.14318054, 4.37607130, 3.42417873, 2.57875939, 11.84166373, 11.28273017, 9.96870102, 14.18978506
17.35439426, 4.54697702, 3.32415403, 2.44438131, 12.23110788, 9.81070844, 7.94040301, 11.37651089
16.59819267, 3.75499667, 4.56891672, 3.07408523, 13.84106210, 8.81901355, 6.78417276, 10.72263960
21.98181066, 4.75920161, 4.60434577, 3.36897611, 12.30040650, 9.74422906, 7.94355084, 15.11621646
22.30078474, 4.96739368, 3.54612465, 3.11046620, 11.81630230, 8.96242155, 9.01942348, 15.09884102
19.87586476, 3.84382622, 3.38747694, 3.17017350, 13.04511403, 8.35912675, 7.88669766, 13.84647970
22.67487596, 3.92428337, 4.23969339, 3.22102468, 12.50999600, 9.87800587, 6.72495353, 12.06958989
19.32744163, 3.87620949, 4.15030119, 2.93683503, 10.90298124, 8.21431677, 7.97809501, 10.59363016
16.38978340, 3.97492138, 3.30907842, 2.89395923, 9.98248466, 7.92779919, 7.96555083, 13.71222083
19.38362711, 3.68103246, 2.81069386, 2.85043856, 12.49099676, 9.01110426, 7.86447710, 12.28210080
18.68421794, 4.70106371, 2.37697286, 3.04138127, 14.37793448, 9.09120454, 7.18505393, 13.42665260
21.60844742, 5.38052042, 3.63661931, 3.32415403, 14.33614314, 8.12711511, 5.23688839, 15.17316711
21.20848887, 3.99374511, 3.79802580, 2.85919569, 11.93105192, 5.83309523, 4.78800585, 14.05702671
19.82485813, 4.11400049, 2.99165506, 2.47991935, 11.54772705, 8.40981569, 5.52946652, 12.45491871
18.23389701, 3.95600809, 3.68103246, 2.46475151, 15.53544335, 7.90411285, 5.63693179, 9.94107640
20.92785225, 3.92109679, 3.91790760, 2.60768096, 15.26843148, 6.01872079, 5.78575838, 14.05257983
21.70771752, 4.22196637, 3.40587727, 2.72488532, 16.07715771, 6.46142399, 6.56886596, 14.51809216
15.42724862, 3.94651745, 3.94651745, 3.00000000, 16.70404143, 6.72681202, 6.28092350, 12.21883792
20.19405853, 3.86975451, 4.29825546, 2.87228132, 13.66473564, 9.31665176, 7.45989276, 11.65010730
23.88514182, 4.36176570, 3.94651745, 2.52487623, 14.51292527, 11.76754010, 9.25607908, 10.78540681
23.38856558, 4.38748219, 3.65718471, 2.72029410, 17.38533865, 10.63954886, 8.64146978, 16.10046583
19.21132479, 3.23264598, 3.80460248, 2.51992063, 17.15808847, 10.87658034, 7.90253124, 16.10900369
17.79606698, 2.88963666, 3.77822710, 2.45458754, 14.97247475, 12.18195387, 7.61084752, 12.97208541
19.30608712, 2.98747385, 3.29013678, 2.68328157, 14.99833324, 15.67322558, 7.00178549, 12.82185634
16.35389862, 3.06594194, 3.19374388, 3.23264598, 14.61078369, 15.01499251, 5.74456265, 8.45133126
18.42756088, 3.22877686, 3.51425668, 3.38378486, 11.64152052, 8.77211491, 6.61248819, 9.75832978
17.74401307, 3.48209707, 3.44238290, 2.87228132, 14.11205159, 8.96521054, 7.39425453, 14.19154678
18.09488878, 3.72491611, 3.22102468, 3.02902625, 18.08867049, 10.02122747, 6.74722165, 14.92899863
19.70469487, 4.35028735, 3.58120092, 3.33916157, 15.72656987, 9.59817691, 6.00208297, 15.18881167
19.14418972, 4.15331193, 3.42782730, 3.37638860, 12.77986698, 7.56637298, 5.28441104, 14.97581383
19.72498416, 3.75499667, 5.52268051, 3.61247837, 13.67479433, 7.13442359, 5.67890835, 14.40572803
17.52355558, 3.79143772, 5.71839138, 3.45687720, 15.04077791, 8.98331787, 6.65206735, 13.84557691
14.45164351, 3.81444622, 3.91471583, 2.78388218, 15.52256422, 8.27345152, 7.57132749, 12.10061982
16.97571795, 3.51781182, 3.82426464, 2.85482048, 15.52900512, 5.39444158, 9.50131570, 12.37739876
25.63639990, 2.88963666, 3.52845575, 3.47131099, 15.32481648, 7.46491795, 8.79914769, 13.77679208
25.67829823, 3.09030743, 4.17133072, 3.29393382, 15.65007987, 10.03742995, 6.48266920, 13.43130671
18.96707674, 3.13049517, 4.71433983, 2.80178515, 16.49696942, 9.09807672, 7.77174369, 11.77391184
17.64440421, 3.17411405, 5.84166072, 3.12249900, 15.94051442, 8.40238062, 8.42614977, 13.38842784
19.88215280, 3.08625987, 5.88430115, 3.48209707, 15.32236927, 10.25426740, 8.19451036, 13.26649916
20.00062499, 4.03422855, 4.78800585, 3.58120092, 13.51943046, 9.56033472, 7.73466224, 11.54014731
20.68211788, 4.05585996, 4.00624512, 3.33916157, 11.00795167, 7.91517530, 8.61539320, 11.20156239
20.89258242, 3.68103246, 7.45989276, 3.49642675, 10.28469737, 9.38482818, 8.54546663, 11.01589760
19.69390769, 4.08962101, 7.78781099, 3.87620949, 10.79930553, 8.30963296, 6.31268564, 11.58339329
18.21606434, 3.07001629, 4.06816912, 3.54964787, 15.10297984, 7.98592512, 6.12168278, 11.58231410
15.29051994, 3.00000000, 3.40954542, 3.17804972, 16.51665826, 8.82468130, 8.00936951, 10.74127553
14.05257983, 4.09267639, 2.91547595, 3.02489669, 13.09961832, 7.40607858, 8.71492972, 11.41709245
17.56487973, 4.01870626, 6.64830806, 3.86652299, 12.89282746, 8.96939240, 8.03430146, 11.07248843
20.95173024, 3.46049129, 7.61577311, 4.15632049, 16.02107986, 9.57731695, 7.24396300, 9.82980163
18.69491910, 2.87662997, 4.69574275, 3.04959014, 14.35357098, 9.58514476, 9.10494371, 13.24952829
18.07276957, 4.36749356, 5.90550591, 2.80624304, 10.47258325, 9.39281640, 9.05400464, 13.90413608
20.12212712, 4.86826458, 6.44204936, 3.30151480, 11.36331818, 8.50441062, 8.25984261, 14.10673598
27.45450783, 3.72827038, 5.56776436, 3.65718471, 12.82283120, 9.43927963, 8.99583237, 16.17405330
30.54341173, 3.61939221, 4.95479566, 3.39484904, 13.45548215, 10.38026975, 6.98212002, 14.04991103
23.45900680, 3.84707681, 6.69328021, 2.98747385, 12.97015806, 9.95238665, 7.48164420, 12.62339099
20.25833162, 4.08350340, 7.89461842, 3.04138127, 12.70432997, 8.01716908, 8.66746791, 13.20511265
20.06551769, 4.66904701, 6.43234017, 2.96226265, 13.07956421, 7.91517530, 7.34676800, 13.50370320
19.22823445, 4.84510062, 6.62947962, 3.31662479, 14.46893223, 10.27740240, 8.61829449, 13.16054710
20.35620299, 4.27784993, 7.35696948, 3.07408523, 12.92671652, 11.51412176, 8.83034541, 14.33439919
17.61533423, 4.13521463, 6.58786764, 2.71569512, 11.41052146, 11.92581234, 7.31095069, 13.90773166
19.43707797, 4.25147033, 4.34741302, 3.06186218, 11.46516463, 9.54070228, 6.82641927, 10.07223908
17.93460342, 3.99061399, 3.13847097, 2.60768096, 12.20450736, 7.75080641, 7.51997340, 9.04571722
16.86860990, 3.70135110, 3.03315018, 1.98746069, 15.54991961, 9.95615388, 7.74435278, 12.93541650
20.59308136, 3.75832409, 3.80788655, 2.61725047, 15.35496662, 9.22632104, 7.41788380, 14.33875866
18.54386691, 3.65376518, 3.85356977, 2.70185122, 12.56184700, 7.36885337, 8.42169817, 12.78084504
18.45535153, 4.08044115, 3.05777697, 2.94533530, 13.10534242, 10.20416582, 9.17741794, 13.58399794
21.33775996, 3.74833296, 4.66100847, 3.09838668, 12.58371964, 11.87013058, 8.35463943, 12.01145287
21.07664584, 2.85482048, 5.06705042, 2.85482048, 14.98332406, 10.35253592, 8.57612966, 11.33578405
18.93871696, 3.64005494, 3.98748041, 2.96226265, 16.36841471, 10.14149890, 9.47628619, 11.83110308
16.91892432, 3.81116780, 3.60555128, 2.77037904, 14.43779762, 11.00000000, 9.90832983, 10.30048543
13.61892066, 3.47850543, 3.11448230, 2.60288302, 14.08367850, 10.41513322, 8.45133126, 10.20416582
15.63809451, 3.26726185, 2.65988722, 2.46475151, 12.25357091, 8.86284379, 9.54725091, 9.91715685
23.23467237, 3.79143772, 3.53199660, 2.33452351, 11.66833321, 7.20763484, 11.25833025, 13.70127731
25.47891285, 4.24852916, 3.95600809, 2.89827535, 13.63909821, 5.63914887, 8.29306940, 14.18273598
22.79583295, 3.60901649, 3.48926926, 2.77037904, 15.06403001, 7.58452372, 6.53643634, 9.43795529
17.89762554, 2.86792608, 3.06186218, 3.00832179, 13.09293703, 10.92130945, 7.26119825, 9.84885780
17.21627137, 2.81957444, 4.04351332, 3.55316760, 13.50555441, 11.22051692, 7.49166203, 11.21828864
22.19628347, 3.25960120, 4.31277173, 3.04138127, 13.55083023, 9.85773808, 7.29725976, 11.99062134
20.37461656, 4.15030119, 3.53553391, 2.80624304, 11.66833321, 9.12277370, 6.71379178, 12.91704301
15.24549114, 4.43283205, 3.49642675, 2.67861905, 14.09787218, 9.12551368, 7.51165761, 11.63400189
14.79949323, 3.64005494, 3.18590646, 2.43926218, 14.42307179, 9.50131570, 9.60728890, 9.57078889
19.53522460, 3.70472671, 3.56370594, 2.57875939, 12.06544653, 8.32165849, 9.24391692, 12.79159881
22.44493261, 3.64348734, 3.71483512, 2.60768096, 12.53096166, 7.99687439, 8.69338829, 14.98582664
22.11447490, 3.01247407, 2.94108823, 2.95381110, 12.73086800, 8.20213387, 9.01387819, 13.61616686
19.78193620, 3.59165700, 2.63628527, 3.19374388, 12.81405478, 9.16651515, 7.88035532, 12.40161280
20.98213526, 3.58817502, 2.46475151, 2.82400425, 13.06043644, 9.11043358, 6.65770231, 12.80136711
19.43321898, 2.98328678, 2.25277607, 2.80624304, 16.28726496, 8.68763489, 7.90253124, 12.85884909
14.24254191, 2.84604989, 2.24165118, 3.08625987, 20.36479806, 10.05733563, 8.79346348, 13.23064624
19.82170527, 2.64102253, 1.98116128, 2.87228132, 17.72004515, 9.16651515, 7.24913788, 13.90143877
20.63189279, 3.08625987, 2.16217483, 2.80624304, 14.42393844, 6.80624713, 7.07460246, 12.29329085
18.73832970, 3.17017350, 2.33452351, 3.15039680, 14.99083053, 7.35017007, 7.86129760, 15.03412784
18.16796631, 2.51992063, 2.21923410, 2.60768096, 12.47898233, 9.08707874, 7.04982269, 16.34242944
16.48256655, 2.24165118, 2.19089023, 2.13892496, 12.75931033, 7.81664890, 7.11512474, 12.69842510
14.47152376, 2.50000000, 2.17944947, 2.17944947, 13.12249976, 6.00624675, 9.00138878, 12.28922292
14.06769349, 2.65988722, 2.11541958, 2.12132034, 22.88176130, 8.38301855, 8.27949274, 13.47126572
16.59593324, 2.43926218, 1.99374020, 2.39791576, 25.06541442, 9.37549999, 6.70447612, 14.26621884
14.20827224, 2.31840462, 1.95576072, 2.24722051, 17.53425219, 7.29040465, 6.89565080, 12.31969967
17.72286659, 2.59326050, 1.91702895, 2.47487373, 14.06502755, 5.88854821, 6.77310859, 9.46176516
20.54993917, 2.71108834, 2.35584380, 3.19765539, 12.72497544, 9.05814551, 7.50999334, 10.31624932
16.97277231, 2.58843582, 2.49499499, 3.09434969, 12.24336555, 8.87693641, 7.11336770, 12.07787233
15.25450753, 2.52982213, 2.12132034, 2.41867732, 8.94986033, 7.18157364, 5.99166087, 13.05565012
17.09751444, 2.39791576, 2.25831796, 2.43926218, 11.78982612, 9.62288938, 7.88194139, 13.23725802
18.00971960, 2.72029410, 2.44948974, 3.05368630, 15.70827807, 8.70919055, 8.96521054, 12.21474519
17.71369527, 2.74317334, 2.19658826, 3.03315018, 16.44840418, 7.09401156, 7.93725393, 9.85520167
19.33843324, 2.41867732, 2.07966343, 2.66926956, 14.20563269, 7.96398142, 8.55131569, 11.89222435
20.76053949, 2.51992063, 1.98116128, 2.38746728, 12.48098554, 6.87386354, 8.73212460, 12.71613149
19.85132237, 2.33987179, 1.76776695, 2.33452351, 13.59135755, 7.13792687, 7.93725393, 10.95216874
16.93295603, 2.12132034, 1.99374020, 2.31300670, 12.50599856, 8.75785362, 7.06753139, 10.41753330
15.06734880, 2.37697286, 2.23606798, 2.15058132, 13.30601368, 8.01093003, 8.11788150, 9.52890340
16.86638669, 2.51992063, 2.22485955, 2.45458754, 13.68849882, 5.93506529, 8.86425406, 10.91214919
17.22643318, 2.50000000, 2.09761770, 2.64102253, 14.25394682, 5.41294744, 7.29040465, 11.18257573
16.66358305, 2.77488739, 2.12720474, 2.59326050, 15.00166657, 11.02043556, 7.94827025, 11.47388339
20.10472581, 3.00832179, 2.38746728, 2.69722079, 16.42558979, 18.77498336, 10.38508546, 13.66473564
21.65756219, 2.83725219, 2.57875939, 2.86792608, 16.03199925, 21.34771651, 9.90202000, 12.24030228
20.83386666, 3.38008876, 2.46981781, 2.58843582, 15.68040178, 18.03191615, 7.86765531, 14.83071138
22.17712786, 3.95284708, 2.33987179, 2.58843582, 17.07995902, 14.89211201, 7.22668665, 15.97732769
21.03746658, 3.58468967, 2.58843582, 2.99583044, 14.37532608, 14.93234744, 8.43949051, 12.16963434
18.56542485, 2.76586334, 2.61247010, 3.12649964, 11.89852932, 14.93904281, 9.01803748, 12.56781604
20.22992832, 2.55929678, 2.66458252, 3.34290293, 11.75478626, 15.94286674, 8.34266145, 11.60926354
19.89095272, 2.87662997, 2.65988722, 3.05777697, 13.69215104, 21.93228214, 9.76601249, 9.87294282
18.86067337, 2.65518361, 2.15638587, 2.13307290, 11.99687459, 23.20021552, 11.25833025, 12.34706443
20.80024038, 2.52982213, 2.40312297, 2.08566536, 10.97269338, 18.24828759, 10.61720302, 13.51480669
22.90687670, 2.97909382, 2.34520788, 2.21359436, 12.56383699, 15.43372930, 10.20784012, 12.20348311
23.15977116, 3.60555128, 2.29673682, 2.59807621, 11.20490964, 16.09192344, 9.82089609, 15.56759455
20.73161836, 3.20156212, 2.31840462, 2.58360214, 12.03224834, 18.01180169, 7.42293742, 15.67880735
20.95232684, 2.78836870, 1.86413519, 2.47487373, 15.32807881, 18.56744463, 7.16937933, 12.16757987
20.22436649, 3.10644491, 1.91702895, 3.01662063, 14.25219281, 15.07149628, 9.03188795, 13.66747965
18.30710245, 2.88097206, 2.21359436, 2.84165445, 13.00096150, 15.26843148, 9.65789832, 14.75889562
20.40404372, 3.30529878, 2.42383993, 2.57390754, 12.51299325, 17.42125139, 8.78493028, 13.54344860
20.57304061, 3.64691651, 2.20794022, 2.93683503, 14.27147505, 13.37441588, 9.29516003, 12.31361036
18.82352252, 3.21325380, 2.27486263, 3.12249900, 14.68587757, 11.54447920, 9.85139584, 15.06900793
19.32938178, 3.10241841, 2.37697286, 3.21325380, 14.63642716, 11.82264776, 8.23711114, 15.31094380
21.02379604, 3.47491007, 2.41867732, 3.00416378, 16.76827361, 13.71586672, 6.61059755, 13.32009760
20.44443690, 3.22877686, 2.40831892, 2.69722079, 13.40801999, 12.99711506, 7.05513997, 12.71809734
21.20848887, 2.51495527, 2.08566536, 3.08625987, 11.20825589, 11.10742995, 7.79583222, 13.77406984
19.14027168, 2.47991935, 1.89076704, 2.84165445, 12.05404496, 14.51809216, 7.81824789, 13.82660479
15.40292180, 3.15436206, 1.96850197, 2.75680975, 14.81975034, 14.01160234, 7.94669743, 12.70924860
14.41266804, 4.31856458, 2.31300670, 2.94957624, 14.80371575, 9.85266461, 7.97025721, 12.53594831
17.71157813, 4.57165178, 2.52487623, 2.80624304, 9.92345706, 8.02963262, 6.97674709, 12.77693234
18.81023657, 3.91790760, 2.20794022, 2.51495527, 9.19238816, 11.14562695, 7.76530746, 13.07000383
16.44308365, 3.27108545, 2.03715488, 2.10356840, 10.85357084, 11.24499889, 7.62069551, 11.60926354
15.56518551, 3.38747694, 2.13307290, 2.65518361, 14.51292527, 8.42911621, 5.94558660, 12.94797281
13.25613066, 3.71146871, 2.40312297, 3.11849323, 15.30114375, 7.67137537, 6.88839604, 14.82228053
13.43874994, 3.58120092, 2.41350368, 2.78388218, 11.67582973, 8.45133126, 8.67323469, 13.62626141
12.52896644, 3.13448560, 1.93649167, 2.03100960, 10.17472358, 7.99531113, 8.87834444, 12.59662653
16.32865579, 3.25192251, 1.90394328, 2.14476106, 11.17586686, 9.97872737, 8.18229797, 14.27410242
17.88295278, 3.87943295, 2.15638587, 2.35584380, 11.44333867, 11.30376044, 7.48999332, 13.09866405
18.18309655, 3.71483512, 2.30217289, 2.48495473, 11.40175425, 10.18086440, 9.76857206, 11.12542134
21.06952776, 3.31285375, 2.15058132, 2.38222585, 11.83427226, 8.88960067, 10.88002757, 12.13569116
24.54180107, 3.57770876, 2.41867732, 2.36643191, 10.96813567, 8.73927915, 8.31564790, 12.13363095
24.13710836, 3.61939221, 2.65518361, 2.58360214, 13.17573527, 11.16355678, 7.81024968, 13.08911762
18.08383256, 2.77488739, 2.35053185, 2.47991935, 16.85897387, 12.18810896, 8.74499857, 15.52820015
18.91031465, 2.78836870, 2.19658826, 2.67861905, 15.96480504, 13.02209661, 9.97747463, 13.94722195
20.40404372, 3.69120577, 2.35053185, 2.77037904, 15.14925741, 11.31591799, 9.07744457, 10.16366076
18.29344145, 3.45325933, 2.13307290, 2.94108823, 15.14843226, 8.58487041, 9.28843367, 13.76862375
18.00486045, 3.06186218, 2.01246118, 2.67861905, 13.41454435, 8.62554346, 9.40478602, 14.94991639
19.47434209, 3.19765539, 2.00000000, 2.22485955, 12.13466110, 7.95298686, 7.24741333, 12.47196857
16.71002693, 2.53968502, 2.01866292, 2.09761770, 12.04055647, 9.44325156, 7.82464057, 12.33794959
17.38174330, 2.75227179, 2.28582589, 1.91049732, 13.00672903, 10.33924562, 8.11171992, 13.64093105
22.43044806, 3.66060104, 2.27486263, 2.77488739, 15.09055996, 9.26552751, 8.68763489, 13.03744607
20.63068104, 3.59861084, 2.65518361, 3.20936131, 14.89211201, 8.36062199, 8.71492972, 11.96244122
23.01738473, 3.66742416, 2.81957444, 2.98328678, 14.34137371, 10.94988584, 9.44589858, 14.12444689
25.13264809, 3.94334883, 2.63153947, 3.02489669, 12.86565195, 10.19313494, 8.61974478, 13.88074206
19.43772106, 3.20156212, 2.42383993, 2.75680975, 10.27010224, 7.93095202, 7.80224327, 11.68653071
16.61400012, 2.84165445, 2.23606798, 2.58843582, 13.16624472, 10.63014581, 9.87927123, 12.46294508
19.45893111, 3.76164857, 2.38222585, 2.88530761, 11.77709642, 14.75804865, 10.76568623, 14.85849925
17.98958032, 3.81116780, 2.39269722, 2.83725219, 15.68996495, 13.93735986, 9.22767576, 15.35903643
14.31520171, 2.81957444, 2.49499499, 2.45458754, 16.80848000, 9.53283798, 6.77679865, 14.19506957
15.48466984, 2.97489496, 3.17017350, 2.31840462, 13.24669770, 8.50294067, 8.02184517, 13.92838828
19.92046686, 3.43147199, 3.11046620, 2.82400425, 14.35705402, 9.89065215, 8.96660471, 12.74950979
19.54673886, 3.18198052, 2.67861905, 2.50998008, 11.49456393, 10.20906460, 7.99374756, 10.65246450
20.90095692, 3.04548847, 2.76134025, 2.31840462, 9.20597632, 8.51469318, 8.17006732, 9.70953140
23.33720206, 2.68328157, 2.78388218, 2.85043856, 12.09958677, 10.13780055, 7.97025721, 12.42175511
20.52011209, 2.77488739, 2.46981781, 2.92403830, 12.21679172, 9.36349294, 7.19027120, 14.84166433
23.43608329, 3.64348734, 2.03100960, 3.16227766, 17.54636715, 9.58775260, 7.13091859, 14.86775033
24.77650096, 3.62973828, 2.17944947, 3.13847097, 20.25216038, 10.35012077, 6.07453702, 15.21758851
21.77383751, 3.51425668, 2.57875939, 2.88963666, 15.53544335, 9.94736146, 7.49666593, 13.22970143
18.88848856, 3.95916658, 2.47991935, 2.74772633, 13.08051987, 10.79351657, 8.77923687, 10.91902010
20.37707045, 3.80788655, 2.51495527, 2.41350368, 10.69929904, 9.52102936, 7.22149569, 11.86802427
20.03122562, 3.09434969, 2.91118533, 2.39791576, 11.16915395, 10.78308861, 6.80991924, 11.28937554
13.88974442, 2.59326050, 2.50000000, 2.46475151, 13.01249400, 10.86738239, 7.88669766, 12.85496013
12.32375754, 3.04548847, 2.35053185, 2.63153947, 13.40335779, 13.26367219, 8.87130205, 13.65558494
19.46021583, 3.28633535, 2.45967478, 2.98747385, 14.71903529, 13.84286820, 8.73641803, 12.88215820
20.30578735, 2.86356421, 2.29673682, 3.18982758, 13.09293703, 10.40072113, 7.80224327, 11.67154660
19.24383018, 3.30529878, 2.16794834, 2.84604989, 11.54880946, 10.93046202, 6.77679865, 12.61051149
23.02444353, 3.49284984, 2.09761770, 2.55440795, 12.64614566, 11.70897092, 6.18061486, 12.41269511
20.97677287, 3.41686991, 2.07966343, 2.81957444, 11.50543350, 10.87083253, 6.55934448, 9.30859818
18.68890045, 3.52136337, 2.58360214, 2.72488532, 13.57018791, 11.20267825, 6.85747767, 10.42473021
20.59611614, 3.58468967, 2.83284309, 2.53968502, 15.72974889, 12.41873585, 8.08857219, 12.15318888
20.94695682, 3.80460248, 2.85043856, 2.40831892, 12.20655562, 11.58447237, 8.70488369, 12.90929897
21.15892247, 3.55316760, 2.74317334, 2.21359436, 15.24631103, 8.91767907, 9.24932430, 13.92838828
22.97117759, 3.91152144, 2.66458252, 2.29673682, 18.47904218, 8.04829174, 8.86989290, 13.82660479
23.10735814, 3.88587185, 2.73404462, 2.77037904, 16.16477652, 9.49868412, 7.11161023, 12.45692578
19.45122104, 3.33166625, 2.32379001, 2.66926956, 13.30883165, 8.77781294, 7.82304289, 12.58272625
20.13268487, 3.41686991, 2.26384628, 2.17370651, 13.42199687, 9.14193634, 7.58287544, 12.77497554
22.85005470, 3.05368630, 2.13892496, 2.38222585, 13.11297068, 9.02773504, 7.76208735, 12.98845641
19.77055892, 2.32379001, 2.23606798, 2.53968502, 11.32475165, 9.27900857, 9.18830779, 14.06947049
19.08336972, 3.11448230, 2.22485955, 2.67394839, 12.44989960, 7.72657751, 8.19756061, 11.87539473
21.57197256, 3.32791226, 1.94935887, 2.53475837, 12.63328936, 7.77013513, 7.73627817, 11.86802427
20.65550774, 2.82842712, 2.27486263, 2.26936114, 12.88797890, 8.11171992, 6.68767523, 12.86370864
17.22570753, 2.72029410, 2.09761770, 2.79284801, 15.58364527, 7.05691151, 5.83737955, 9.90580638
17.21554530, 2.64575131, 1.85067555, 2.92831009, 15.28970242, 10.14765983, 6.49037749, 10.61955743
17.96315674, 2.52487623, 2.19658826, 2.32916294, 12.28413611, 11.51520734, 6.00000000, 13.55267501
21.40969407, 2.77488739, 1.97484177, 2.25277607, 10.50357082, 9.68116728, 7.88511255, 13.90233793
22.83856388, 4.19821391, 2.25277607, 2.61247010, 8.82892972, 8.76783896, 10.00124992, 14.04813155
20.53350920, 3.95284708, 2.34520788, 2.55440795, 10.37063161, 10.83512806, 8.91066776, 14.43433407
20.70748657, 3.22877686, 2.51992063, 2.39791576, 10.72030783, 10.11311030, 7.53160010, 13.56281682
21.28673296, 3.34290293, 2.87228132, 2.74772633, 13.63451503, 7.70227239, 8.61684397, 13.62259153
19.81035083, 3.26726185, 2.50000000, 2.87662997, 15.79952531, 7.90094931, 8.04518490, 12.71514845
16.78466562, 3.15436206, 2.28582589, 2.89395923, 14.30996157, 9.00000000, 8.53814968, 10.44629121
16.04291121, 2.92831009, 2.28035085, 2.87662997, 12.78573424, 7.44983221, 9.43000530, 12.29024003
18.09557957, 2.92403830, 2.15638587, 2.31300670, 16.30644045, 5.86728216, 8.04207685, 15.00416609
20.84406390, 3.13049517, 2.07966343, 2.22485955, 17.13913650, 5.88642506, 6.29086640, 13.53421590
22.31535346, 3.24807635, 2.02484567, 2.35584380, 13.02305648, 7.22841615, 6.28887907, 12.03951826
18.80624896, 3.49284984, 2.06760731, 2.39269722, 15.68279312, 10.50000000, 8.19756061, 13.40708768
13.59319683, 3.59513560, 2.58360214, 2.74772633, 15.32807881, 11.88381252, 9.08845421, 14.50086204
15.99453032, 3.47131099, 2.58360214, 2.83725219, 11.78028013, 11.06006329, 9.19918475, 17.74683070
18.40719968, 3.75832409, 2.72488532, 2.88097206, 10.94189198, 10.29684418, 8.80908622, 17.02204453
16.96835290, 3.11849323, 2.56904652, 2.49499499, 11.50760618, 8.92048205, 7.49499833, 11.95303309
16.50833123, 2.91547595, 2.09761770, 1.96214169, 12.28311850, 9.19918475, 8.21127274, 10.10321731
17.91856579, 3.68442669, 2.39269722, 2.15058132, 10.49642796, 9.35147047, 8.17159715, 11.50108691
18.62726496, 4.18628714, 2.36114379, 2.45967478, 10.92130945, 6.97853853, 7.76852624, 13.65375406
17.62171955, 3.92109679, 2.40312297, 2.57390754, 10.54869660, 6.92820323, 8.01872808, 13.45269490
18.04993075, 3.07408523, 2.69258240, 2.43413229, 8.61249093, 10.07223908, 8.25530133, 15.79477762
17.91437970, 2.84165445, 2.77037904, 2.65047166, 10.13903348, 11.52063366, 9.15150261, 15.97732769
16.10512341, 2.78388218, 2.39791576, 3.12249900, 12.28718845, 9.33675533, 7.86765531, 12.41772926
17.78271633, 2.91118533, 2.24165118, 2.99583044, 14.36662800, 9.09120454, 7.07990113, 9.51840323
17.92065847, 2.82842712, 2.14476106, 2.50000000, 13.02017665, 9.48946785, 8.02184517, 10.68644001
21.43653423, 2.92831009, 1.83030052, 2.44948974, 11.35011013, 7.83581521, 8.25075754, 12.93831519
24.41720705, 3.87943295, 2.03100960, 2.60288302, 13.36413110, 7.42293742, 8.35164654, 13.85009025
21.82945258, 3.61593695, 2.04328167, 2.43413229, 13.50555441, 9.71596624, 8.01716908, 13.01921657
18.11491099, 2.61247010, 1.96214169, 2.65988722, 15.51289786, 9.94736146, 7.33995913, 10.52021863
16.75186557, 2.66926956, 2.24165118, 2.90258505, 15.72339022, 7.10985232, 7.09401156, 10.44629121
19.71103752, 3.22490310, 2.23047080, 2.35053185, 12.87536407, 5.65243310, 6.94802130, 11.03856875
21.29377843, 3.43874977, 2.01246118, 2.13892496, 15.16822336, 6.25899353, 8.43949051, 11.28273017
19.26914632, 3.00416378, 2.37697286, 2.59326050, 16.32329624, 8.35763124, 9.55510335, 11.65975986
17.49428478, 3.24037035, 2.44438131, 2.64102253, 13.47312139, 9.51314880, 8.93028555, 10.64894361
16.51968523, 3.67083097, 1.99374020, 2.35584380, 11.03517105, 8.22344210, 7.44311763, 9.16515139
19.55505050, 3.45687720, 2.32916294, 2.43413229, 9.77496803, 7.86129760, 7.09929574, 10.69579357
19.61568250, 2.88530761, 2.55929678, 2.13307290, 12.23008585, 6.99106573, 7.19374728, 11.98227858