3.47491007, 2.54950976, 2.25277607, 2.60288302, 15.88238017, 18.38069640, 23.63524910, 14.27935573
4.25734659, 2.75227179, 2.43413229, 3.06594194, 21.76579886, 14.41787086, 19.83557410, 16.27267649
9.11454881, 3.47491007, 2.54950976, 4.20713679, 22.78486340, 15.70191071, 24.51479145, 17.38821440
13.32478893, 4.12613621, 2.74772633, 5.70087713, 21.00357112, 20.87402692, 29.19845886, 19.07419723
10.57118726, 3.44238290, 2.53968502, 5.01248441, 16.59894575, 21.45227261, 24.65866987, 12.53993620
4.06201920, 2.49499499, 2.11541958, 2.88963666, 10.41273259, 17.87316424, 20.16618457, 8.91207047
4.58257569, 2.69722079, 2.41867732, 2.84604989, 8.33066624, 16.38444384, 21.48778723, 9.95866457
4.71433983, 2.78836870, 2.38222585, 3.93382765, 17.73414785, 14.17039167, 20.69782597, 13.06426423
5.06458290, 2.40831892, 2.45967478, 7.05868260, 25.76868254, 12.71809734, 30.97902516, 21.46916393
5.73803102, 3.59861084, 2.93683503, 7.49666593, 21.52905014, 20.74969879, 37.41256473, 20.20272259
6.03531275, 4.54697702, 3.26726185, 5.51361950, 12.73283158, 29.74012441, 37.51732933, 13.23253566
5.97285526, 4.97744915, 3.49642675, 4.49722136, 9.23579991, 34.39004216, 40.56753628, 12.55886141
5.90973773, 5.24166004, 3.65718471, 3.87620949, 10.29805807, 31.44598544, 33.26184000, 9.32737905
6.94262198, 6.79889697, 3.86975451, 3.84382622, 10.56172334, 32.45073189, 29.71489525, 8.66314031
7.06576252, 7.18157364, 3.76497012, 3.88587185, 7.89936706, 42.51470334, 33.17642235, 8.52349693
7.64689479, 5.53850160, 3.18590646, 3.91152144, 8.41278789, 45.14919711, 31.46505999, 9.69020124
9.37283308, 5.51588615, 3.31662479, 4.43001129, 7.60756203, 41.61309890, 28.96031768, 12.00937134
9.11043358, 5.90762220, 4.14728827, 5.97494770, 9.17877988, 39.40875537, 25.27103085, 10.88117641
7.73627817, 6.15629759, 5.07937004, 7.52661943, 10.67590746, 33.35978117, 27.14774392, 9.74037987
9.08982948, 6.45174395, 4.66100847, 8.23559348, 8.63133825, 35.09736457, 32.63242253, 11.93943047
8.93448376, 6.76572243, 3.75499667, 8.23711114, 10.12299363, 37.39351548, 33.47050941, 11.55097398
7.86606636, 6.94262198, 4.72228758, 9.03603896, 12.59960317, 33.60766282, 33.20090360, 8.95125689
9.19918475, 6.10532554, 5.02742479, 8.53814968, 10.90871211, 31.58757667, 30.91480228, 10.28591270
9.00694177, 5.51588615, 4.24852916, 6.03116904, 10.70280337, 30.44174765, 25.36878003, 11.36221809
6.89565080, 4.99749937, 3.58120092, 4.69308001, 10.67941946, 32.38402384, 20.14509866, 10.33198916
5.12347538, 4.57711700, 3.03726851, 4.18031099, 7.58452372, 28.64000698, 16.75485004, 7.96398142
6.53834842, 4.62601340, 2.78836870, 4.36463057, 8.68043778, 22.83692186, 19.08664455, 5.51135192
7.36545993, 6.55362495, 3.87943295, 5.49772680, 14.30821442, 26.95505518, 24.85759441, 6.70074623
10.19068202, 6.55934448, 4.31856458, 5.24642736, 15.03994681, 28.08914381, 25.53673824, 10.94303431
10.65363788, 4.59075157, 3.15039680, 3.83731677, 11.16579599, 28.81666185, 22.22892260, 11.25944048
7.46324326, 4.34741302, 3.21714159, 3.97806486, 8.73641803, 26.93185846, 24.31820306, 8.25681537
6.61437828, 4.36749356, 3.38378486, 3.94017766, 8.61249093, 19.93113143, 23.12195926, 7.55479980
5.79870675, 4.81404196, 2.81069386, 3.65034245, 10.32714869, 27.72949693, 21.16837263, 6.78785680
6.26099034, 4.55247186, 3.11046620, 4.35889894, 11.10855526, 31.02539283, 21.63041840, 8.99027252
6.75832820, 4.50555213, 3.43147199, 4.63411264, 13.04990421, 34.27973162, 23.92017977, 9.04018805
5.17445649, 5.24642736, 4.41588043, 7.12214855, 12.29735744, 36.97363926, 25.54163268, 6.78232998
5.04727649, 5.39675829, 4.37892681, 8.44097151, 10.12669739, 35.59669929, 27.91549749, 7.84697394
5.61693867, 4.84767986, 4.08962101, 6.28887907, 12.39959677, 40.49938271, 26.78385708, 8.18993284
5.89491306, 4.29825546, 4.12310563, 4.71963982, 12.72006289, 39.70988542, 22.20698088, 8.36062199
5.69649015, 3.51781182, 3.64691651, 5.20096145, 9.67341718, 32.77117636, 24.92689311, 7.40607858
5.54752197, 4.54147553, 3.86005181, 5.57449549, 8.27194052, 31.36040497, 27.26994683, 5.38052042
6.57457223, 5.15024271, 4.28077096, 5.97494770, 11.38639539, 37.38114498, 28.62953021, 6.18869938
7.04095164, 4.61789996, 4.22492603, 6.15832770, 12.19733577, 38.41809470, 27.73580718, 8.86002257
7.14492827, 4.95479566, 4.66904701, 6.86840593, 10.61838029, 38.71143242, 30.54177467, 10.62426468
6.90289794, 5.27494076, 5.00249938, 6.68767523, 10.85702538, 41.92523107, 32.87970499, 11.79300640
5.71401785, 4.86055552, 4.24264069, 5.71182983, 12.74264494, 36.53902024, 28.56046218, 10.51189802
5.27967802, 4.47493017, 3.91471583, 4.73814310, 11.77497346, 26.70580461, 28.94175185, 7.97182539
5.40601517, 3.73496988, 3.41686991, 3.74499666, 7.96555083, 27.72002886, 29.27498933, 6.68954408
7.55976190, 3.69797242, 2.77488739, 3.89551024, 7.64198927, 28.14826815, 23.28733561, 7.11688134
8.00468613, 4.28077096, 4.33301281, 6.48459713, 8.08393469, 32.39444397, 24.70121455, 8.87834444
7.25775447, 4.95479566, 4.76182738, 7.33484833, 11.10855526, 39.78975999, 30.81720299, 10.13410085
7.83262408, 6.32653144, 4.88620507, 5.72712843, 11.97706141, 36.68753194, 32.98181317, 10.18822850
7.18157364, 6.08892437, 4.60977223, 4.82182538, 13.86812893, 36.21256688, 30.48852243, 7.97025721
6.96778300, 5.10881591, 3.07814879, 4.37892681, 13.63543179, 38.21681567, 30.51393124, 7.80704810
6.47302093, 5.49545267, 3.32039154, 4.30406784, 10.43791167, 37.40655023, 29.05038726, 8.71062570
5.16962281, 4.99499750, 3.39116499, 4.25734659, 13.53329228, 37.62645346, 20.80444664, 7.24741333
5.97494770, 3.59861084, 2.80178515, 3.54259792, 12.85982115, 35.23669962, 23.01358295, 8.35164654
6.28887907, 2.63628527, 2.80178515, 3.27108545, 8.60523097, 32.05659059, 23.83956795, 9.40212742
7.54155156, 2.77037904, 3.02902625, 3.80788655, 9.07055676, 28.80885281, 18.07138622, 9.27496631
7.60756203, 3.93700394, 2.94533530, 4.08962101, 10.84781084, 38.24460746, 25.13414013, 8.78066057
6.18667924, 4.25440948, 3.04548847, 4.26321475, 10.19313494, 40.67861846, 28.13405410, 8.67467579
6.29483916, 4.54422711, 3.65034245, 4.55796007, 8.10709566, 29.96956790, 28.70060975, 8.77068982
5.77494589, 4.27784993, 3.28633535, 4.20713679, 7.81824789, 26.03699291, 28.57971308, 7.84219357
6.29285309, 3.19765539, 2.41350368, 4.13823634, 8.41130192, 26.04371325, 24.10446017, 8.08702665
6.50000000, 3.25576412, 2.53968502, 4.36749356, 10.67590746, 24.96447476, 20.94576329, 8.21431677
6.30872412, 4.06201920, 2.32916294, 3.62973828, 12.44588285, 21.13705277, 19.54609936, 8.04829174
6.14817046, 4.60163015, 3.15436206, 4.08962101, 11.74521179, 21.87464285, 23.57382022, 8.38003580
5.29622507, 3.99687378, 3.26726185, 4.23379263, 11.95930600, 26.46412666, 25.64420012, 7.02317592
6.11759757, 4.25440948, 2.70185122, 3.79802580, 10.31382567, 24.88322728, 23.36289794, 5.11126208
6.35413251, 4.57711700, 3.12649964, 4.25147033, 12.28311850, 23.56109081, 26.93974759, 7.61905506
6.78048671, 4.00936404, 2.95803989, 4.11096096, 14.92481156, 29.18861079, 27.84914720, 9.15559938
7.49166203, 4.59619408, 3.22102468, 4.70106371, 13.57387196, 28.95082037, 21.67083293, 8.39940474
6.41677489, 4.63950428, 3.14245127, 4.43283205, 14.00981799, 26.88586989, 19.44800761, 7.38579718
5.43829017, 4.13521463, 2.82400425, 3.18590646, 12.41571585, 25.32340814, 25.38454254, 6.65018797
5.40138871, 4.56891672, 3.19374388, 3.37638860, 10.71914176, 27.89354764, 25.86793382, 7.61741426
7.07460246, 4.28660705, 2.58360214, 2.94957624, 12.71809734, 26.61249706, 19.39071943, 8.42318230
6.96419414, 4.11096096, 2.13307290, 2.58843582, 12.25153052, 19.98061561, 19.10628169, 8.63568179
6.82641927, 4.60705980, 3.11849323, 3.67083097, 12.14701609, 27.80017986, 21.19197961, 8.64146978
7.00000000, 4.65026881, 3.02076149, 4.02492236, 10.66770828, 28.71367270, 21.62637279, 7.72819513
5.94768863, 4.85798312, 2.46981781, 3.93064880, 9.75832978, 25.99567272, 19.98812147, 7.07283536
6.73238442, 5.42678542, 2.85482048, 3.98748041, 13.35664629, 27.82265264, 21.47382127, 6.79337913
6.51536645, 6.37965516, 3.10644491, 3.58120092, 15.01582499, 32.69709467, 20.85125895, 7.59605161
6.46142399, 6.73980712, 8.46906134, 4.99749937, 13.15294644, 30.09277322, 16.98087159, 7.75241898
7.44983221, 6.26099034, 13.05852212, 5.77494589, 12.57477634, 19.02038380, 19.79141228, 7.42630460
8.50881895, 7.40945342, 13.44432966, 6.12372436, 13.38002242, 19.47819293, 20.27683407, 7.11688134
8.05915628, 7.36376263, 11.14562695, 5.98539890, 13.06235048, 20.50670622, 23.00217381, 6.48652449
5.68990334, 5.17445649, 8.68043778, 4.70372193, 11.09166354, 16.52271164, 24.14332206, 5.02742479
4.83735465, 5.45893763, 7.70227239, 4.85025773, 10.91558519, 20.55784522, 24.49489743, 3.99374511
4.81144469, 5.19133894, 5.98957428, 4.48051336, 12.74068287, 26.56124997, 26.70299609, 5.06705042
5.35957088, 4.33589668, 3.09030743, 3.69459064, 14.21179088, 26.81184440, 27.22407023, 6.17859207
6.57076860, 6.32060124, 7.24223722, 4.93710441, 13.74772708, 30.80056818, 25.81133472, 6.95880737
6.39140047, 8.54107722, 13.29473580, 6.38357267, 11.71964163, 31.75137792, 21.89120828, 5.72057689
5.54526825, 11.97184196, 20.63976744, 8.73927915, 11.22942563, 26.40407166, 23.03638426, 4.80884602
5.63471383, 11.12092622, 22.60641502, 8.73927915, 9.86407624, 22.65115891, 24.97648894, 5.30801281
7.02495552, 7.90569415, 21.35708313, 8.22648163, 13.12249976, 24.51938009, 22.91996946, 4.98998998
7.45486418, 7.93567892, 21.08850398, 9.06366372, 14.16774506, 30.31707440, 23.60879074, 5.51135192
6.94802130, 7.42293742, 17.15808847, 7.66485486, 10.73429085, 29.86804312, 29.75231083, 5.83095189
7.39087275, 8.73355598, 15.50322547, 7.61741426, 11.32585538, 34.14747428, 29.08221106, 6.28887907
8.59069264, 8.92608537, 14.27410242, 7.09753478, 13.22592152, 33.85336025, 23.03312832, 6.38944442
8.69338829, 8.54839166, 12.53096166, 6.37377439, 12.18810896, 22.97498640, 25.94898842, 5.59910707
7.21976454, 8.31113711, 12.03536456, 6.98391008, 13.71495534, 21.56327897, 32.02147717, 6.69888050
5.93085154, 6.20282194, 9.60468636, 5.75760367, 12.64416862, 26.77825610, 27.94369339, 7.25775447
5.25594901, 6.95880737, 8.10401135, 4.29243521, 9.07055676, 28.52411261, 19.48974089, 5.88217647
6.44398945, 7.58122681, 4.83993802, 3.27871926, 8.79630604, 21.87692849, 16.44688420, 4.26614580
6.56886596, 5.41525623, 3.34664011, 2.86356421, 9.08570305, 20.28114888, 15.33704665, 4.30987239
5.23688839, 5.30801281, 2.62678511, 2.65518361, 10.72846681, 22.06751005, 18.91890589, 4.19523539
5.32681894, 5.12347538, 2.40312297, 3.00000000, 11.92581234, 21.04934678, 22.07317376, 4.21900462
4.77493455, 3.99374511, 2.55440795, 3.21325380, 11.06684237, 22.92324148, 23.37733946, 5.20336430
4.84767986, 4.42718872, 2.73404462, 2.92403830, 9.47100839, 25.51911049, 22.61194375, 5.36190265
5.88217647, 4.71699057, 2.72029410, 2.95803989, 12.06544653, 23.69546370, 24.51887028, 6.30872412
6.18667924, 4.93203812, 2.69258240, 3.49642675, 12.89088825, 26.54571529, 24.35518425, 6.28490254
6.67832314, 4.86826458, 2.61725047, 3.51069794, 12.74068287, 33.14928355, 21.77842970, 6.06630036
7.19027120, 4.49444101, 2.50000000, 3.12249900, 13.50277749, 29.94828877, 22.78266885, 6.30079360
7.54155156, 5.32916504, 2.61247010, 3.23264598, 12.65898890, 25.16495579, 25.84134284, 6.44010869
6.87386354, 5.54526825, 2.73404462, 3.36154726, 11.16579599, 24.15470969, 27.46952857, 5.95189046
5.12103505, 4.15331193, 2.67861905, 3.91790760, 13.54713992, 26.33296413, 21.57950416, 4.23083916
5.11126208, 3.82753184, 2.64102253, 4.62331050, 15.76546859, 29.11700534, 19.14810696, 5.18411034
5.51135192, 4.67974358, 2.42899156, 4.03422855, 13.70675016, 28.16513803, 22.81337327, 5.52720544
5.31272058, 4.37892681, 2.46981781, 3.13049517, 12.22190656, 30.04663043, 24.95796466, 4.88876262
4.63950428, 4.51109743, 2.83725219, 3.64005494, 10.28469737, 28.45610655, 22.21204628, 4.46654229
5.47037476, 4.88876262, 2.80624304, 3.94017766, 11.92581234, 25.80164723, 16.53178756, 5.20576603
6.78417276, 4.70637865, 2.87228132, 4.01559460, 13.59503586, 31.67175398, 20.01312070, 6.37181293
5.43599117, 3.98434436, 2.78388218, 4.05585996, 13.07096018, 32.85079908, 24.46170476, 5.97076210
4.41021541, 3.71483512, 2.84165445, 3.53199660, 13.28721190, 28.35886105, 24.94042903, 5.51135192
5.01746948, 3.90192260, 2.97909382, 2.88963666, 12.46896146, 28.66792633, 27.24105358, 5.89915248
6.11350963, 3.40954542, 2.92403830, 3.60901649, 14.84334868, 28.61555521, 28.47235501, 6.47495174
5.95608932, 2.88963666, 3.28252951, 4.26028168, 16.97350877, 26.01970407, 24.39364671, 6.00832755
5.31977443, 3.22102468, 2.94108823, 4.30697109, 14.39791652, 24.52600661, 25.53624875, 5.02742479
5.43369119, 4.03732585, 2.66458252, 4.10791918, 11.69508444, 23.73762836, 26.81277681, 5.33853913
4.81144469, 3.79802580, 2.67394839, 3.33166625, 12.77791063, 25.05942936, 18.97893569, 4.95479566
5.02991054, 4.07737661, 2.77488739, 3.41320963, 12.26988183, 28.85697489, 17.50856933, 4.49722136
5.70526073, 4.50277692, 2.95803989, 3.15832234, 11.75372281, 30.37556584, 19.93614807, 5.13322511
5.91185250, 4.21307489, 2.85043856, 3.79143772, 11.22831243, 26.68520189, 17.65502761, 5.09411425
5.02991054, 3.90832445, 2.91547595, 4.18628714, 13.09198228, 24.33875510, 20.64945520, 4.48608961
5.92874354, 3.13049517, 2.66458252, 3.29772649, 13.83925576, 22.84896059, 21.91175484, 5.91185250
7.24051103, 3.15436206, 2.37697286, 3.19374388, 10.28348190, 27.32215218, 19.67612767, 6.74351540
5.96447818, 4.11400049, 2.70647372, 3.16622804, 8.34415963, 28.90328701, 20.73945515, 5.82022336
4.94722144, 3.64348734, 2.61247010, 3.06594194, 8.23559348, 26.57113095, 20.81826121, 5.73585216
6.64454664, 3.71483512, 2.29673682, 3.65718471, 8.22952003, 23.70864821, 19.83620427, 6.57076860
7.22841615, 4.87852437, 2.72946881, 4.04042077, 11.72177461, 29.07103369, 29.41003230, 6.57267069
6.50384502, 4.63950428, 3.22102468, 4.02802681, 12.12641744, 33.50820795, 31.17410785, 6.09097693
6.74722165, 5.36423340, 3.10241841, 3.85681216, 10.93846424, 27.66134487, 29.45674795, 5.85021367
7.32973397, 5.41294744, 2.72029410, 3.48926926, 12.11404144, 28.21347196, 30.46391308, 5.10636857
7.54652238, 4.79061583, 2.65518361, 3.28252951, 10.43551628, 26.89563162, 25.23935419, 6.50192279
6.68206555, 4.55521679, 2.50998008, 2.96647939, 9.85012690, 30.83342342, 23.84690756, 6.56505902
6.11350963, 4.19523539, 2.82400425, 3.22490310, 10.82704946, 30.55855036, 25.16048489, 5.75108685
6.24899992, 4.50277692, 3.17411405, 3.82426464, 10.13903348, 20.81345719, 26.54147697, 5.76844866
5.95608932, 4.35315977, 3.07001629, 3.70809924, 9.77752525, 25.97306297, 25.09731061, 6.29682460
6.18061486, 5.03239506, 3.43147199, 4.23083916, 12.25153052, 31.47776993, 22.62907422, 6.58217289
5.72276157, 4.72493386, 3.15436206, 4.00312378, 11.45425685, 27.09843169, 23.43981655, 4.96990946
5.11859356, 4.07737661, 2.82400425, 3.33916157, 10.16857906, 21.47964152, 24.65866987, 5.98122061
4.50555213, 4.24852916, 3.02902625, 3.94968353, 11.30154857, 27.76598639, 24.26365595, 6.10941896
5.74020906, 4.41588043, 2.77488739, 3.53199660, 10.42712808, 27.09197298, 21.78875857, 5.29622507
6.74722165, 5.57000898, 3.14642654, 3.44601219, 10.05360632, 21.16423871, 21.96645169, 5.39212389
6.53834842, 5.37819672, 2.87662997, 3.24037035, 9.01803748, 21.57602836, 20.46338193, 5.18652099
6.10532554, 5.29150262, 2.88097206, 2.89827535, 9.58905626, 18.68823159, 19.56144166, 6.54599114
6.62570751, 5.39444158, 2.90688837, 2.87662997, 11.09954954, 18.39089449, 24.39723345, 6.76756973
7.36545993, 4.26028168, 2.46981781, 3.18198052, 10.23230179, 21.12522189, 27.27773818, 6.23297682
6.07659444, 3.75499667, 2.43413229, 3.24422564, 9.45780101, 24.15574466, 24.97999199, 5.48406783
6.28291334, 3.75832409, 2.02484567, 2.82842712, 9.50920607, 23.98280634, 23.38161671, 4.85798312
6.76941652, 4.33877863, 2.54460213, 3.07001629, 10.25182911, 23.58707273, 21.38340478, 4.76445170
5.89279221, 5.05470078, 2.66458252, 3.02489669, 10.39350759, 20.35988703, 19.48075974, 5.01248441
5.67890835, 4.43846820, 2.35053185, 2.87662997, 10.11434625, 15.46124186, 23.26316831, 5.44977064
4.91680791, 3.16227766, 2.38222585, 2.71108834, 9.73524525, 15.92560831, 21.56269927, 5.26070338
3.75499667, 2.92403830, 2.20227155, 2.53968502, 9.71853898, 14.47411483, 18.77831196, 4.77493455
4.59619408, 3.38747694, 1.94293592, 2.21923410, 10.12546295, 13.35945358, 22.45050111, 4.51386752
5.54526825, 3.33541602, 1.93002591, 2.13892496, 9.17060521, 13.38656042, 21.28203468, 6.10532554
6.67832314, 3.00000000, 2.06155281, 2.46475151, 8.70488369, 13.18806278, 19.47434209, 6.70261143
6.98927750, 2.95381110, 2.27486263, 2.89395923, 10.20661550, 13.09866405, 23.13979257, 5.97076210
5.31742419, 2.82842712, 2.41350368, 2.88097206, 9.15150261, 15.80901641, 21.02082301, 5.50227226
5.14538628, 3.35410197, 2.49499499, 2.82842712, 6.31466547, 16.22189878, 22.51388460, 6.19677335
6.55934448, 3.44963766, 2.99583044, 3.72827038, 9.37416663, 15.38099477, 24.95445852, 6.83008053
7.56306816, 3.84382622, 2.97069016, 3.76164857, 11.25499889, 16.90488095, 23.55366214, 7.34166194
6.62193325, 3.71483512, 2.35584380, 3.03726851, 11.08940936, 17.01469953, 20.87642211, 6.47881162
5.32916504, 3.31662479, 2.13892496, 2.62678511, 12.05093357, 13.62626141, 17.36879386, 4.94469413
6.79337913, 3.57071421, 2.42383993, 2.78388218, 10.38989894, 11.32033568, 20.77739156, 6.25099992
7.15716424, 3.24422564, 2.30759615, 2.46475151, 7.36036684, 13.24197870, 22.44771703, 6.80441033
6.48845128, 3.09838668, 2.36114379, 2.35053185, 8.97078592, 14.18361731, 22.53830073, 6.41287767
5.71182983, 2.97909382, 2.41350368, 2.74772633, 8.93728147, 16.91670772, 20.80024038, 6.06836057
6.17049431, 3.75499667, 2.24722051, 2.60768096, 8.16241386, 20.96365903, 18.77564912, 6.08481717
6.48074070, 4.97995984, 2.77488739, 2.78388218, 9.25472852, 21.70195844, 19.39845355, 6.33837519
6.80441033, 6.75092586, 2.69722079, 2.72029410, 11.48368408, 26.33296413, 18.26129787, 5.31742419
6.74907401, 7.05336799, 2.81513765, 3.30907842, 10.69929904, 30.26920878, 16.89008585, 5.20336430
5.88430115, 6.46335826, 2.99165506, 3.98120585, 9.21004886, 27.58260321, 23.54623112, 6.33245608
7.25258575, 6.90108687, 2.63628527, 3.51781182, 9.41674041, 23.40192300, 26.52734438, 6.04359165
6.79521891, 6.87204482, 2.42899156, 2.78388218, 8.52936105, 23.38108210, 25.85923433, 6.25499800
6.62004532, 5.96866819, 2.48997992, 2.77037904, 9.44722181, 23.68016047, 24.60944940, 6.20886463
6.54790043, 4.75394573, 2.30217289, 2.59326050, 10.31988372, 23.71655540, 16.94254999, 6.42261629
5.26070338, 4.35028735, 2.40831892, 2.27486263, 9.36616250, 22.87957605, 15.32155345, 7.13792687
5.80517011, 4.52216762, 2.69722079, 2.61725047, 10.74011173, 23.54092182, 18.63397435, 5.73149195
6.21087755, 5.47950728, 2.33987179, 2.84604989, 10.32835902, 21.06478103, 21.16837263, 4.77755167
7.27839268, 6.49037749, 2.55440795, 2.91976026, 6.41092817, 17.48141871, 20.04682020, 6.65206735
7.37394060, 5.78359750, 2.91547595, 3.45687720, 6.19879020, 19.18984106, 19.46150046, 6.75832820
5.73803102, 4.02802681, 2.87662997, 3.84382622, 10.84896308, 19.54865724, 23.02172887, 5.02493781
6.35216499, 3.68781778, 2.46981781, 3.32039154, 13.26367219, 20.83986564, 21.75603365, 4.58530261
7.88352713, 4.44128360, 2.68793601, 3.04959014, 12.39858863, 18.80957203, 20.77137453, 5.26070338
7.44311763, 4.64219776, 2.54460213, 2.75227179, 11.42037653, 16.40655357, 21.15124110, 5.39675829
6.28689112, 4.09267639, 2.02484567, 2.06760731, 9.28439551, 13.91312330, 17.23223723, 5.46808925
5.36423340, 3.33541602, 2.05548048, 2.29128785, 7.92148976, 13.07096018, 17.40043103, 6.14613700
5.40370243, 3.57071421, 2.28035085, 2.55929678, 10.19190856, 17.23876446, 18.61652492, 6.32455532
5.74456265, 4.86569625, 2.42383993, 2.77488739, 11.39517442, 19.71801207, 18.82684254, 6.70634028
4.95227221, 4.90153037, 2.32379001, 2.72488532, 11.01249291, 20.32732152, 20.33715811, 7.15716424
5.37354632, 4.40454311, 2.41867732, 2.71569512, 10.03618453, 23.40245714, 17.56559136, 7.38579718
6.34231819, 5.23211238, 2.30759615, 2.59807621, 10.96471614, 24.95045090, 22.93741485, 6.80624713
6.68019461, 4.90917508, 2.60768096, 3.42782730, 11.03630373, 22.34334353, 26.61578479, 7.74112395
6.72495353, 4.43001129, 3.04548847, 4.27492690, 13.16909260, 29.11185326, 22.98314600, 9.11866218
6.08481717, 4.56891672, 2.91547595, 3.79802580, 15.94913791, 29.77918736, 21.70138244, 7.19895826
5.60802996, 4.62060602, 2.84604989, 3.81772183, 14.28110640, 24.58200561, 22.44548952, 6.65206735
5.60357029, 4.56618002, 3.01247407, 4.11703777, 11.44661522, 26.36996397, 25.01349636, 6.98032951
5.82880777, 4.12613621, 3.05777697, 3.59861084, 11.93000419, 27.26765483, 24.75732215, 5.95818764
6.34625874, 4.67172345, 2.93683503, 3.25960120, 12.73872050, 26.33391350, 21.31724654, 7.01248886
7.23187389, 4.31856458, 2.43413229, 3.01662063, 11.69829047, 26.12422248, 20.36418425, 7.94355084
7.12039325, 3.69120577, 2.56417628, 3.05368630, 13.34166406, 30.09651143, 19.09712020, 7.40101344
5.81807528, 4.17133072, 2.53968502, 3.04959014, 15.04077791, 31.86847973, 20.56817931, 6.06630036
5.91819229, 4.39886349, 3.05368630, 3.93700394, 21.25264689, 32.51230536, 26.92768093, 5.71839138
5.73367247, 4.29243521, 3.32415403, 4.09267639, 20.59247435, 29.14489664, 27.20386002, 5.80947502
5.06458290, 4.15030119, 2.65518361, 3.42782730, 12.83062742, 23.59819908, 21.87464285, 5.62361094
6.05185922, 4.31277173, 3.01662063, 3.72827038, 13.86001443, 28.19618769, 21.87578570, 7.25086202
5.79870675, 3.85032466, 3.19374388, 3.64005494, 13.00000000, 26.81603998, 20.80504746, 6.91194618
5.54075807, 3.59861084, 3.00832179, 3.69797242, 10.46183540, 23.85057651, 25.62713406, 6.62004532
6.34034699, 4.00312378, 2.66926956, 3.56370594, 12.77693234, 27.57353804, 27.60344181, 6.97137002
6.68580586, 3.81116780, 2.13892496, 2.85043856, 12.05508192, 27.00231472, 27.34547495, 6.17454452
6.65957957, 4.24558594, 2.06760731, 3.04548847, 12.71219887, 26.70205985, 30.64188310, 6.63136487
12.30447073, 4.48887514, 2.44948974, 3.66742416, 16.14388429, 32.11074586, 24.05202694, 7.49666593
13.85369987, 4.81144469, 2.82842712, 3.95600809, 21.62348261, 31.40541355, 21.58240024, 7.35187051
9.38216393, 5.28677596, 2.85482048, 3.93382765, 22.32095428, 26.64207199, 27.76958768, 8.38152731
14.06769349, 5.22972275, 2.98328678, 3.86652299, 16.59593324, 26.07728897, 28.76890683, 9.38749168
15.70031847, 5.94978991, 3.21714159, 4.64219776, 18.45873777, 28.60506948, 30.11187473, 9.69149111
11.98332174, 6.32455532, 3.07814879, 4.39886349, 20.58154513, 34.93672852, 28.08424825, 8.75357070
12.45291131, 6.22494980, 3.33166625, 3.82753184, 18.34189194, 34.78613229, 29.74558791, 16.09891301
10.07472084, 5.39675829, 3.56019662, 4.08044115, 18.96312211, 33.66749174, 31.38590448, 16.49166456
12.81210365, 4.33877863, 3.45325933, 3.86005181, 18.02359565, 35.66510900, 25.41357905, 12.13981054
15.20032894, 4.79583152, 3.67763511, 4.12916456, 15.75119043, 33.98639434, 26.67864314, 14.03388756
15.19128039, 5.82451715, 3.90832445, 4.46934000, 18.16521401, 27.38886635, 25.60468707, 15.29460689
14.45942599, 6.32653144, 3.75166630, 4.40170422, 16.46131829, 31.26019834, 22.81994741, 14.11382301
10.97383251, 6.12168278, 3.93064880, 4.90153037, 20.19096333, 35.66440803, 22.55659549, 10.40672859
10.59245014, 6.01248701, 3.60901649, 4.87083155, 20.02935346, 31.93822162, 19.57421774, 10.93846424
9.94484791, 5.72712843, 2.98747385, 4.35315977, 13.20795215, 27.13899409, 20.34146012, 14.53788155
8.35763124, 5.64358042, 2.99165506, 4.25147033, 14.97581383, 28.96938039, 20.02872937, 14.62361105
6.92639878, 5.76628130, 2.69722079, 3.66401419, 14.82481029, 33.71868918, 20.28792744, 9.31530998
11.72390720, 5.91819229, 2.73861279, 3.50713558, 17.01763791, 32.05620065, 24.51428155, 9.51708989
13.96692522, 5.39444158, 3.17017350, 4.55247186, 19.62587578, 31.43246729, 23.16570741, 12.26784415
12.08925142, 5.31742419, 3.44963766, 4.66904701, 19.10235588, 34.75161867, 28.74369496, 12.92961716
11.51195031, 5.61248608, 3.14245127, 3.82099463, 17.79957865, 32.87628324, 28.30238506, 11.90693075
12.37638881, 5.93085154, 2.97909382, 4.58802790, 19.62077980, 32.34887942, 25.75364052, 11.48912529
10.14273139, 5.82880777, 2.94957624, 5.27019924, 19.87900903, 32.87780406, 27.57943074, 10.17718036
7.75080641, 7.24913788, 3.17804972, 4.55521679, 15.69713350, 25.54946183, 24.65917679, 9.15013661
13.06235048, 7.81664890, 3.46770818, 4.21900462, 14.57223387, 22.20923231, 28.27808339, 13.67753633
18.20370841, 6.85200701, 3.24037035, 4.16833300, 14.68417516, 21.58297941, 25.97883754, 13.49444330
17.84586787, 6.35609943, 2.71108834, 3.97806486, 11.99687459, 28.04995544, 20.42853397, 9.70180396
14.17039167, 6.31862327, 2.41867732, 3.81444622, 12.28210080, 31.35602016, 19.02695456, 8.77068982
12.36224090, 5.53398591, 3.01662063, 3.81772183, 13.62809598, 24.46221576, 21.75086205, 8.13019065
9.50657667, 4.67707173, 3.39484904, 4.36463057, 14.51550895, 24.29609022, 23.52711202, 9.16924206
9.95866457, 6.05805249, 2.91547595, 4.17133072, 15.33297101, 35.64898316, 23.90658905, 11.85959527
10.02372186, 7.20243015, 2.62678511, 3.56019662, 16.79955357, 38.81236916, 24.00052083, 12.55985669
12.01249350, 12.35414910, 17.16828471, 6.78969808, 17.36087555, 34.41148064, 25.30365586, 11.65868775
17.38533865, 19.02826844, 28.69189781, 9.81580358, 18.76366169, 33.65523733, 25.45044204, 24.69463504
18.96707674, 24.50204073, 42.18619442, 16.53783541, 21.02795758, 35.78267737, 24.88825024, 27.70604627
18.26608880, 34.71166951, 60.49772723, 25.59833979, 18.58628527, 38.04766747, 26.08495735, 19.82485813
18.69224438, 33.72017200, 59.27626000, 24.07436396, 16.09503029, 35.50739360, 29.61291948, 23.30611508
19.71484212, 27.48272184, 47.85185472, 17.62101019, 17.72850812, 34.25492665, 30.68346460, 22.05617827
16.95066370, 26.30161592, 42.58256686, 19.33067510, 19.34618826, 33.85779083, 27.49681800, 17.01249541
14.17568341, 18.65877810, 26.58759109, 14.95743962, 16.51590143, 32.11308145, 25.75364052, 16.45296326
12.24744871, 14.38923209, 9.91589633, 5.28204506, 16.82706154, 24.78053672, 23.20398673, 12.96148140
10.05360632, 13.87804021, 5.63027530, 4.68508271, 20.55358849, 18.23938047, 23.86629422, 11.47715121
9.50263121, 13.28533026, 10.84204778, 6.29880941, 22.70847859, 21.15478669, 26.98518112, 12.66491216
9.12140340, 11.32806250, 12.16655251, 6.38553052, 21.26146749, 31.17330589, 24.95646209, 12.81015222
11.39736812, 11.07587468, 7.55976190, 4.24852916, 16.39054606, 32.78909880, 24.08889786, 9.99499875
11.07248843, 9.67341718, 4.91934955, 4.15030119, 14.84503284, 28.98792852, 28.84441020, 9.69149111
8.57029754, 7.34676800, 9.12140340, 5.88217647, 17.42627327, 32.73721124, 30.87758086, 12.47597692
7.94512429, 6.90832831, 9.30994092, 5.41063767, 18.39021479, 32.85802794, 38.34514311, 12.92671652
7.50499833, 6.02287307, 9.58253620, 4.44128360, 14.86690956, 37.73658702, 35.32173552, 10.45585960
7.45654075, 8.21583836, 11.68973909, 4.91934955, 13.95349419, 38.76499710, 23.50372311, 10.38869578
7.83262408, 9.39414711, 10.81434233, 5.47037476, 16.05147968, 33.39049266, 23.79915965, 12.26988183
8.10246876, 8.69195030, 8.99444273, 5.16236380, 16.73842884, 29.86134625, 23.73078170, 11.22163090
7.51831098, 7.60427511, 5.28677596, 3.48568501, 13.95349419, 34.15662454, 22.41260806, 9.61899163
7.27839268, 5.42678542, 4.76182738, 3.58817502, 15.14760707, 34.19868419, 17.64582104, 11.90798052
7.45989276, 4.81404196, 5.01497757, 3.77160443, 18.81023657, 23.79495745, 18.36436767, 10.87658034
8.20518129, 5.41525623, 3.30529878, 3.43874977, 17.22643318, 24.69615355, 20.23116408, 8.39791641
8.47348807, 5.36423340, 3.15832234, 3.51425668, 15.24713088, 27.20523847, 21.60266187, 7.41451280
6.74351540, 4.66100847, 2.73861279, 3.33916157, 13.70675016, 23.88618848, 19.70659788, 9.39813811
7.81664890, 4.82700735, 3.83405790, 4.57165178, 13.41640786, 23.99895831, 18.69692488, 12.53794241
8.32316046, 5.62805473, 3.86975451, 4.62060602, 14.21794641, 25.16644592, 21.42078430, 12.45993579
7.16763559, 5.40832691, 2.89827535, 3.69459064, 14.80371575, 21.76579886, 21.47149273, 9.79285454
7.21976454, 4.25440948, 2.77938842, 3.20546408, 14.74279485, 21.25441131, 19.48781671, 7.13091859
6.70447612, 3.74165739, 2.47991935, 3.17411405, 19.32162001, 20.38197733, 21.93000228, 6.42650761
5.94348383, 3.94968353, 3.29013678, 3.60901649, 23.21852709, 19.76044028, 21.59224398, 5.40601517
7.44815413, 4.12310563, 3.81116780, 4.18628714, 22.87684419, 28.47235501, 21.94139923, 9.61379218
8.53961357, 4.48608961, 3.81116780, 4.56618002, 19.21522834, 29.78884019, 24.05670385, 12.11404144
10.06479011, 6.04359165, 9.86534338, 5.93085154, 16.45904007, 25.71818423, 19.31256068, 16.57483032
9.00832948, 6.50768776, 13.53698637, 7.68927825, 15.07149628, 23.15977116, 18.11836085, 16.96908955
6.91917625, 4.91680791, 10.11187421, 6.36199654, 12.16860715, 23.70284793, 16.10279479, 10.79004171
7.41114026, 4.24558594, 3.62284419, 3.33916157, 16.91522982, 23.34469961, 15.99921873, 9.60598772
6.76017751, 4.79583152, 2.97489496, 3.20936131, 15.72020992, 24.66171121, 17.98680072, 8.94706656
7.57297828, 5.85448546, 3.57421320, 3.69120577, 13.86271979, 27.29010810, 21.29436545, 7.34166194
7.12039325, 6.25699608, 6.69888050, 4.35028735, 16.61776158, 23.15113388, 23.28411476, 7.23014523
7.86765531, 5.85021367, 7.42125326, 4.32145809, 13.61800279, 20.58822479, 24.14383979, 7.80064100
8.86707393, 5.99583189, 5.94558660, 3.58468967, 9.47496702, 24.27859139, 27.34090342, 9.28708781
6.95161852, 6.54025993, 7.02673466, 3.79473319, 14.08456602, 26.52922916, 25.11075467, 9.51577637
6.07453702, 6.02909612, 7.67951821, 3.81444622, 16.54992447, 24.25335028, 21.08257574, 11.52063366
6.53452370, 6.56696277, 9.04709898, 4.24264069, 15.55313473, 26.81697224, 22.32767341, 11.43459663
6.22093241, 6.56315473, 8.96660471, 5.14052526, 16.30873999, 27.33084338, 21.90262541, 7.04804938
6.26697694, 5.15509457, 6.06423944, 5.22254727, 16.13691420, 22.13820228, 18.16314951, 7.22149569
7.31436942, 5.75977430, 5.23450093, 4.72493386, 14.64155046, 23.83537287, 22.94504304, 8.36958780
6.62382065, 5.74238626, 4.88876262, 3.67083097, 13.70583817, 21.43653423, 25.25717720, 7.47161295
6.00208297, 4.79322438, 3.38008876, 3.18982758, 16.02342036, 24.05098751, 18.62390936, 7.64035339
6.40312424, 4.23379263, 2.81957444, 3.57421320, 16.64106367, 24.80322560, 16.07326974, 10.06851528
7.00713922, 4.93457192, 3.20156212, 3.58468967, 14.88707493, 19.37266115, 13.97676644, 10.13903348
7.83421981, 4.48051336, 2.93257566, 2.96226265, 17.57626240, 20.40036764, 13.53513945, 9.09670270
7.28697468, 4.14125585, 2.85919569, 2.99583044, 17.27642903, 19.27692922, 16.96540598, 8.84872872
7.07460246, 4.81923230, 3.05777697, 3.67423461, 12.08718329, 17.22135302, 20.70688291, 7.42125326
8.10246876, 6.25299928, 3.36526373, 3.48926926, 12.50099996, 17.32844482, 22.10656011, 6.81725751
7.86606636, 5.98748695, 3.64348734, 3.05777697, 13.47497681, 18.74099784, 19.98311787, 8.75357070
6.60113627, 4.50555213, 2.95803989, 2.81069386, 13.90773166, 22.20135131, 22.00795311, 9.10219754
5.85234996, 5.40832691, 3.21714159, 3.91471583, 14.50861813, 22.86208652, 23.15545292, 6.93721846
7.13091859, 6.04565960, 3.39484904, 4.00312378, 14.42047156, 22.46219045, 17.91717054, 9.66048653
8.90224691, 5.05717312, 2.54460213, 2.89395923, 12.77888884, 20.38688304, 16.86712779, 10.49761878
7.85015923, 5.16720427, 2.17370651, 2.60768096, 9.00694177, 14.31520171, 19.52818476, 7.77495981
7.87242021, 5.80301646, 2.31840462, 2.84604989, 10.89380558, 18.34325489, 19.03811966, 8.89943818
8.35763124, 4.92442890, 2.83725219, 3.42052628, 14.33527119, 24.46323773, 18.41602563, 9.20326029
7.23532999, 5.39907399, 3.03315018, 3.86975451, 15.50080643, 23.38910003, 18.46889277, 8.09629545
7.19200945, 5.70964097, 3.73496988, 4.57165178, 17.68615278, 23.20290930, 25.40865994, 10.62426468
6.85018248, 6.01040764, 8.58195782, 4.74868403, 18.93343603, 29.27157324, 25.79680213, 10.03992032
10.03369324, 7.81504958, 15.68757470, 8.30361367, 17.43057658, 36.19461286, 20.06863224, 6.79705819
11.27829774, 8.61974478, 22.43991979, 12.21883792, 16.21342037, 34.98285294, 23.38375504, 9.25877962
9.79923466, 10.04987562, 23.07921143, 11.61464593, 13.93466899, 28.11227490, 22.50722106, 14.61591598
11.32254388, 9.55379506, 20.13392659, 8.32316046, 14.51723114, 33.95658993, 19.11347692, 14.24166423
11.85116028, 7.64689479, 18.57754020, 8.46020094, 17.51927510, 39.18513749, 24.91134280, 10.17963654
10.58654807, 8.17006732, 16.44004258, 8.27798285, 15.42076522, 35.04532779, 29.33726299, 10.65598423
10.27010224, 7.02673466, 12.49599936, 6.06217783, 14.69438668, 28.66400181, 24.10912690, 12.26682518
9.05262393, 5.57449549, 8.97357231, 5.27257053, 14.89295135, 25.05693517, 17.33060876, 10.39591266
7.50666371, 5.54075807, 8.84590301, 5.03984127, 11.54880946, 21.07961100, 18.16383770, 7.31778655
6.96239901, 5.19855749, 7.41956872, 4.74605099, 16.20339471, 15.91618673, 18.09627033, 7.19895826
7.56637298, 4.93203812, 5.72494541, 3.76497012, 19.52050204, 21.41786637, 17.98124022, 7.15891053
9.15559938, 6.55743852, 6.11964051, 3.65376518, 15.12365697, 27.19374928, 16.29877296, 6.57647322
8.24317900, 7.37054950, 7.23705741, 4.03422855, 11.73349905, 27.45951565, 12.14289916, 6.04565960
8.58050115, 7.20243015, 7.54652238, 4.80104155, 12.76518703, 25.03447623, 16.00781059, 8.44393273
8.91207047, 6.77126281, 8.87693641, 5.07690851, 13.02305648, 25.89401475, 19.73132028, 8.55423872
7.38748942, 5.35023364, 7.98279400, 3.60555128, 15.62289986, 24.78406746, 20.96365903, 7.42798761
7.92306759, 5.47265932, 5.99374674, 3.65718471, 16.03901493, 21.69216448, 23.59502066, 7.54817859
7.96084166, 6.10737259, 6.96598880, 3.96232255, 15.06320019, 27.37699764, 22.02385071, 7.46659226
7.53160010, 6.11146464, 7.01248886, 4.65295605, 15.57080602, 28.08246784, 18.18584614, 7.61248974
6.97853853, 5.56102509, 6.86476511, 5.01248441, 13.94184349, 27.00740639, 20.44810505, 8.03585714
5.80517011, 4.65564174, 6.15629759, 3.86328875, 10.99317970, 25.99951923, 21.23263997, 7.97182539
7.89303490, 4.36463057, 5.61916364, 3.89230009, 12.45291131, 25.01299662, 21.49651134, 9.17469346
8.99027252, 5.78791845, 6.47108955, 4.61519230, 14.60650540, 27.59755424, 23.56268236, 11.82264776
7.15192282, 5.89703315, 5.53398591, 4.26907484, 12.26988183, 25.45240657, 20.56635602, 11.75797602
7.25258575, 5.48634669, 6.12168278, 4.03422855, 10.91902010, 22.80241215, 18.73232500, 9.11043358
7.53160010, 5.72494541, 6.26897121, 4.11096096, 11.32695899, 24.14383979, 20.43587532, 6.30079360
6.39140047, 4.44971909, 3.80788655, 3.36154726, 14.28723206, 28.13183250, 18.44586675, 7.95612971
7.15367039, 5.99583189, 3.43511281, 3.77160443, 16.33248297, 25.83215051, 16.68232598, 8.49705831
7.68602628, 8.24014563, 4.21010689, 4.29534632, 14.79780389, 23.35487101, 20.27375150, 8.16394512
9.45515732, 7.71848431, 4.36463057, 4.19523539, 15.32155345, 23.45101277, 24.61198895, 10.84435337
8.60523097, 5.79655070, 3.38008876, 3.34664011, 14.28548214, 25.30464384, 23.27981959, 9.17605580
6.94982014, 7.24051103, 7.06399320, 3.04959014, 15.02081889, 29.10455291, 20.01749235, 5.79439384
8.42614977, 8.44985207, 8.25378701, 4.53321078, 16.09270021, 29.27242730, 21.58124185, 8.22192192
9.70824392, 7.61413160, 6.32850693, 4.75920161, 15.39155613, 33.73388504, 20.85845152, 11.79512611
10.10074255, 7.04982269, 7.60427511, 4.99499750, 15.23154621, 31.18934113, 17.28366281, 11.97706141
8.72209837, 6.12984502, 7.55645419, 5.54301362, 14.68162116, 25.35793761, 18.38885532, 9.05952537
7.55314504, 5.24404424, 6.40117177, 5.00999002, 13.80398493, 27.37106136, 21.11575241, 6.87386354
7.87242021, 5.74238626, 5.61693867, 4.44690904, 12.91413954, 24.79314421, 25.31205247, 6.68580586
8.25681537, 6.28887907, 4.65295605, 4.33589668, 15.24139101, 20.86683972, 28.05396585, 8.75071426
8.28402076, 6.44010869, 4.27784993, 4.04351332, 19.50897229, 25.67586415, 26.12039433, 10.89151046
8.34266145, 6.60113627, 3.64005494, 3.94017766, 17.63022972, 30.02623853, 23.37573528, 11.32916590
6.62382065, 5.96028523, 4.70903387, 4.17731971, 13.45083641, 24.77397828, 19.80151509, 10.50000000
7.32973397, 6.72495353, 6.07659444, 4.45813863, 15.40535621, 20.24969136, 23.14465381, 10.25182911
8.16700680, 7.05336799, 5.07690851, 4.08656335, 15.44425460, 19.86139471, 25.65687042, 8.76641318
7.16240183, 5.78359750, 2.38746728, 3.20936131, 13.69032505, 18.17484525, 21.04637736, 8.53961357
9.57340065, 7.16240183, 3.24037035, 3.63661931, 11.71964163, 18.75699869, 21.33600244, 11.06006329
9.94233373, 9.34210897, 5.46580278, 4.60705980, 10.86278049, 20.14944168, 21.25911569, 9.65012953
7.63544367, 8.79204186, 5.58345771, 5.00999002, 15.85875153, 23.00489078, 21.36235006, 9.05676543
8.26740588, 8.21279490, 6.98927750, 4.75394573, 18.02775638, 20.61795334, 28.66443790, 11.19374826
9.02911956, 7.36036684, 8.22952003, 4.50555213, 14.01338646, 19.59528004, 28.20859798, 10.52378259
8.82043083, 6.89746330, 9.46704811, 4.49444101, 12.46795893, 23.95412282, 25.67537731, 10.36942621
7.28697468, 7.70389512, 10.35012077, 4.64219776, 11.12542134, 21.00416625, 24.55045824, 9.09120454
6.88476579, 6.08687112, 7.99374756, 4.04042077, 12.82575534, 15.03412784, 19.53778391, 7.43303437
7.63380639, 6.03945362, 6.57837366, 4.06509532, 16.85452462, 20.08295297, 18.12525862, 7.81344994
7.69252884, 6.06423944, 6.21490145, 4.33301281, 17.50642739, 20.89677009, 18.87789713, 7.97809501
6.48652449, 5.58345771, 5.87154154, 3.88587185, 17.45422585, 17.98819057, 20.35865909, 8.64002315
5.25832673, 6.79337913, 7.42462120, 5.25357021, 15.63249820, 19.64051934, 21.38515840, 8.03741252
6.87386354, 6.53452370, 7.98435971, 5.61471282, 12.43181403, 20.01187148, 22.52554106, 6.75277721
7.21803297, 5.58121850, 7.46826620, 4.26614580, 12.22804154, 21.66506404, 19.89220953, 7.24913788
6.29483916, 5.64358042, 6.09097693, 3.57071421, 15.61489673, 20.79002165, 17.34286597, 9.27496631
6.71937497, 5.82022336, 4.62331050, 3.05777697, 16.81071087, 20.30640293, 18.99144544, 8.49117189
7.31095069, 7.05868260, 4.27784993, 2.92403830, 14.98582664, 22.33998657, 21.01428086, 6.27096484
8.01093003, 6.75647837, 4.21307489, 3.45325933, 17.72004515, 21.67660029, 22.86318001, 7.38071812
8.45281018, 6.77310859, 4.45252737, 3.31662479, 16.80178562, 20.17548017, 19.96872555, 8.51028789
8.15322022, 6.68580586, 3.89871774, 3.15832234, 14.22937103, 18.39089449, 15.93894601, 8.58487041
7.82464057, 5.02244960, 2.97069016, 3.24422564, 15.06485977, 21.46334084, 16.06938082, 7.85493475
6.64078309, 5.08920426, 2.86792608, 3.23264598, 12.81600562, 21.10509417, 16.23807255, 7.42967025
7.63708059, 4.88364618, 2.91547595, 3.31662479, 11.53039462, 20.80624906, 17.14715720, 8.07774721
8.22800097, 5.75325995, 8.86566410, 4.81144469, 12.98460627, 21.33541656, 19.82233589, 8.53229160
7.75886590, 7.49166203, 11.44333867, 5.14538628, 13.04607221, 20.30578735, 20.58518885, 9.70180396
8.30963296, 7.45486418, 9.33943253, 4.19821391, 11.78240213, 24.87770086, 16.50530218, 9.83615779
7.72172261, 6.31664468, 6.15832770, 3.34664011, 11.36441815, 23.90502039, 14.37880384, 8.22040145
7.38071812, 6.04772685, 6.64266513, 4.13219070, 10.66653646, 18.01874024, 18.53847351, 8.21888070
7.68114575, 5.11126208, 7.53989390, 4.77755167, 10.48570455, 20.59490228, 19.16311561, 8.64869932
7.37733014, 6.13799642, 8.73498712, 4.09572948, 11.08940936, 25.14110181, 20.56817931, 8.73784871
8.50000000, 7.45486418, 9.01803748, 4.39602093, 13.56373842, 23.17326045, 23.54092182, 10.27010224
9.32603882, 6.74722165, 7.14842640, 4.35028735, 17.17774723, 23.16462821, 20.35558891, 10.45944549
7.94669743, 6.66520817, 7.92937576, 4.53596737, 16.95435047, 25.37321422, 19.19700497, 9.10768906
8.34565755, 7.94669743, 8.82609767, 4.52216762, 16.30260715, 27.48272184, 21.68582486, 9.13236005
9.51052049, 8.11634154, 8.59360227, 3.99374511, 14.88539553, 30.81517483, 24.25438105, 7.98592512
9.53939201, 6.95880737, 9.81835017, 5.00249938, 13.23064624, 30.17117830, 25.50882200, 8.86284379
8.62409416, 5.95818764, 9.41010096, 5.07198186, 15.45719897, 31.54797933, 24.71740278, 8.84166274
10.17472358, 5.92241505, 9.91337480, 4.31277173, 19.20416621, 26.82769092, 20.23301757, 9.16378743
10.83858847, 7.24223722, 10.83051245, 3.67423461, 17.58479457, 21.19492864, 20.29347186, 10.02122747
9.16378743, 7.67300463, 7.97809501, 3.52845575, 16.47801566, 29.05813139, 24.30432060, 8.80340843
8.65736681, 6.86112236, 5.39444158, 3.93382765, 16.68757022, 27.45860521, 21.22145141, 7.96084166
6.65206735, 6.71192968, 6.39531078, 4.18927201, 13.14343943, 24.57946297, 17.87316424, 6.84653197
8.22040145, 6.09097693, 8.49558709, 4.64219776, 14.60479373, 29.05770122, 17.89692711, 8.96102673
9.26822529, 6.08892437, 9.12140340, 4.99749937, 15.34519469, 24.17229819, 19.34101859, 8.26589378
7.62725377, 6.67270560, 7.81984655, 4.35603030, 19.57421774, 22.14441239, 21.50232546, 7.40270221
7.10281634, 4.93203812, 6.84470598, 3.57421320, 18.34325489, 22.27442480, 19.58507084, 10.00499875
7.06576252, 4.05277683, 9.46968848, 4.63141447, 12.07476708, 15.70986951, 17.46138597, 10.57827963
7.44143803, 6.28092350, 10.10074255, 4.58802790, 13.04607221, 19.36620768, 21.86092404, 9.39414711
7.13967786, 6.35216499, 8.92608537, 4.03422855, 13.45641111, 19.20026041, 21.44119866, 8.02028678
7.14842640, 5.16962281, 9.77496803, 5.00000000, 14.41873781, 23.13763169, 17.68403235, 8.01560977
7.61084752, 4.84767986, 9.90580638, 4.65026881, 15.37774366, 27.23095665, 17.69039287, 9.23309266
8.01560977, 4.67707173, 8.08238826, 3.71483512, 13.13107002, 25.16396233, 16.32559340, 8.71062570
7.16414684, 6.37769551, 9.27631392, 4.39033028, 12.83062742, 27.46452257, 18.09074349, 8.52203027
5.91819229, 6.55362495, 9.80561064, 3.83079626, 12.13775103, 25.17836373, 17.65431958, 9.53283798
5.93085154, 4.56070170, 8.70488369, 4.47493017, 9.37283308, 24.85809727, 23.88618848, 8.88256720
6.09097693, 4.49444101, 9.99499875, 5.10881591, 11.45971204, 32.73186521, 30.23325983, 9.58253620
7.21630099, 6.61626783, 9.45515732, 4.22492603, 13.68393218, 29.04608407, 25.13065857, 9.68374927
6.25699608, 6.91917625, 8.00780869, 4.23083916, 11.72177461, 18.57282962, 16.56200471, 8.33366666
5.15509457, 5.49545267, 8.05294977, 5.12591455, 13.32291259, 20.47498474, 20.99106953, 7.16414684
6.89746330, 4.67974358, 8.78919792, 4.83218377, 16.12839112, 22.20191433, 24.79465668, 6.97495520
7.58781919, 5.01746948, 10.02621564, 4.19225476, 13.57387196, 16.64556998, 21.82887995, 8.54400375
7.55810823, 6.62382065, 11.16915395, 4.56618002, 11.01135777, 13.12059450, 18.42213343, 7.85652595
7.50166648, 7.19722169, 10.18454712, 4.35028735, 13.36880698, 21.21497113, 17.47927344, 6.53069675
8.45872331, 7.10105626, 7.50999334, 4.00936404, 12.99519142, 23.23951376, 17.12381383, 7.20069441
7.81504958, 6.27096484, 7.56472075, 4.45252737, 11.67261753, 21.07427342, 16.08570794, 8.65592283
6.27694193, 4.23379263, 9.08295106, 4.25440948, 12.13878083, 20.80624906, 18.20714146, 8.93028555
7.66485486, 4.51109743, 8.79630604, 3.37638860, 12.56980509, 17.40545891, 19.76233792, 7.17460800
6.75647837, 5.09901951, 8.77496439, 3.54612465, 12.36830627, 18.63598669, 21.88663976, 5.83952053
6.67083203, 4.82700735, 8.53961357, 3.60208273, 12.37739876, 17.53924172, 17.85217074, 7.94984277
8.80340843, 4.85540935, 7.66974576, 3.42417873, 13.30037593, 12.96244576, 17.60965644, 9.37283308
7.67137537, 4.46934000, 7.77656737, 3.81772183, 12.59960317, 16.83448841, 22.65336620, 8.33966426
5.66127194, 4.67974358, 7.75886590, 4.56070170, 12.17579566, 21.22557420, 21.17545749, 6.59734795
8.94706656, 6.47881162, 7.84219357, 4.86055552, 13.70675016, 20.52011209, 18.98157001, 6.29483916
9.74935895, 7.17112265, 7.91043614, 4.20416460, 14.67906673, 20.82786595, 19.18658385, 6.98212002
7.15541753, 5.91607978, 7.27839268, 3.45687720, 13.91941091, 25.31550908, 19.55121480, 6.37573525
8.41575903, 5.32447180, 7.60427511, 3.75832409, 14.05702671, 23.76972865, 21.46741717, 7.60756203
9.22767576, 5.56551884, 9.17877988, 4.19225476, 13.41547614, 17.04186023, 21.29319140, 8.62844134
8.14401621, 5.96866819, 9.47628619, 4.83476990, 14.96245301, 17.07703136, 19.88026660, 8.11788150
8.21279490, 5.94138031, 9.91589633, 5.19133894, 15.40860149, 27.53361582, 19.69835018, 9.41541290
7.52495847, 5.97076210, 9.20190198, 4.50555213, 13.17193987, 27.71506810, 19.76360291, 10.18086440
8.57904424, 8.88115983, 22.16641604, 12.53295655, 14.07568826, 27.26077769, 21.48778723, 9.87294282
19.05977440, 8.82751381, 23.41367122, 13.52312834, 13.23442481, 33.87624536, 23.23305834, 11.27829774
19.79898987, 5.81162628, 11.41271221, 6.55171733, 11.40065788, 27.08551273, 25.24232557, 11.83532847
10.71097568, 5.87579782, 11.47061463, 5.28441104, 12.46194206, 19.57613343, 23.14195325, 9.08157475
9.84123976, 6.87022561, 12.21474519, 5.28677596, 14.50344787, 25.92537367, 23.94525005, 8.14555093
12.36628481, 6.13392207, 10.62308806, 5.01497757, 14.90805152, 24.42283767, 23.76446928, 8.91767907
11.05441088, 5.44288526, 9.39281640, 5.21775814, 12.65405073, 18.46280044, 18.13628959, 8.27194052
7.70064932, 6.09097693, 9.18422561, 4.78800585, 11.87223652, 20.96962088, 20.96246646, 7.50999334
6.86840593, 5.94978991, 9.81070844, 4.68774999, 11.60495584, 19.71927991, 23.65903633, 7.27151979
6.32257859, 5.82451715, 9.81198247, 5.64800850, 10.64189833, 12.21065109, 20.61977206, 7.49833315
6.49230314, 6.02079729, 9.30188153, 5.70306935, 10.99772704, 15.28643189, 24.22395509, 6.98748882
10.54632637, 5.63693179, 6.79705819, 4.33301281, 11.24166358, 18.32484652, 25.88580692, 6.72309453
10.89724736, 4.55247186, 6.67083203, 4.08962101, 12.77008222, 20.06738648, 18.67083287, 7.27667506
10.18086440, 7.12390342, 8.88538125, 4.39033028, 11.98019199, 20.06240265, 25.72984648, 7.93725393
14.35705402, 9.04571722, 17.37023316, 7.52495847, 14.04101136, 17.93390643, 27.47362371, 9.20597632
15.32644773, 8.85155354, 20.94397288, 8.46167832, 14.12887115, 21.00000000, 18.42213343, 9.98874366
12.80820050, 8.15628592, 15.62129956, 5.66347950, 11.77815775, 25.08336102, 16.62377815, 10.32230594
10.95901455, 7.45989276, 11.44224628, 5.04727649, 13.21552118, 23.32219972, 18.20302173, 10.12546295
9.61769203, 6.60870638, 9.84123976, 4.82441706, 11.73243368, 18.95521037, 21.89006624, 8.23559348
8.94287426, 5.28677596, 6.83556874, 3.59165700, 12.37032740, 19.94555088, 23.12358104, 7.69740216
9.16924206, 6.60870638, 7.74919351, 3.89551024, 13.60238950, 22.80570104, 21.66621794, 9.03742220
8.56883889, 6.88476579, 8.17159715, 4.21010689, 13.33135402, 25.46222693, 21.78416856, 9.86661036
7.20069441, 6.12576526, 7.31778655, 4.29825546, 12.61744824, 21.97441694, 20.50182919, 8.89241250
6.67645115, 6.54790043, 8.17006732, 4.56891672, 14.60222586, 19.62587578, 18.24623249, 8.71206061
7.58122681, 6.39921870, 7.66811581, 4.48887514, 15.32400078, 20.03434551, 19.92548619, 9.19646671
7.41619849, 6.06217783, 5.91819229, 3.81116780, 12.88215820, 17.55562588, 24.87267577, 8.86284379
6.89746330, 5.74238626, 5.82666285, 3.81444622, 11.08602724, 19.56271965, 28.23473039, 8.29759001
9.85266461, 6.70447612, 5.57897840, 3.35410197, 10.01374056, 18.26882591, 26.00240374, 8.71062570
11.39517442, 7.27667506, 4.01559460, 2.78388218, 8.95684096, 15.85402157, 21.37054047, 12.41772926
9.24797275, 6.25499800, 3.33166625, 2.59326050, 8.92328415, 17.32700205, 17.16173068, 11.54447920
7.68277294, 5.46351535, 3.13847097, 2.85919569, 11.81207010, 18.03191615, 19.11936191, 6.89383783
8.44097151, 4.83218377, 2.89395923, 2.80178515, 11.27053681, 16.37146908, 21.44119866, 6.53069675
9.08432716, 4.30987239, 2.51992063, 2.81957444, 8.68475676, 14.03834036, 17.38965210, 8.28552955
8.13941030, 4.65832588, 2.53968502, 3.05368630, 11.31591799, 15.29215485, 15.59807680, 8.69051207
6.49037749, 5.87579782, 2.96647939, 3.05368630, 11.90903019, 16.30950643, 19.58315603, 8.41575903
6.76387463, 6.04772685, 3.20546408, 3.48926926, 9.94736146, 18.68488694, 19.03877622, 9.44722181
7.21110255, 5.83952053, 2.65988722, 2.85043856, 10.17595204, 21.57660770, 17.85217074, 8.64725390
6.85200701, 6.29483916, 2.32379001, 2.57390754, 10.06230590, 21.57023412, 18.67618805, 9.67729301
7.87559522, 5.67890835, 2.63628527, 3.29772649, 11.55205609, 19.76233792, 17.50499929, 11.30597187
7.77335192, 5.01996016, 2.75680975, 3.14642654, 13.90773166, 19.15006527, 16.26115002, 9.65012953
6.63513376, 5.15509457, 2.55440795, 2.62202212, 13.03169214, 22.12351690, 18.35483588, 9.14056891
8.30060239, 5.40601517, 2.43926218, 2.88963666, 11.95930600, 21.46042870, 21.67890680, 8.65014451
9.59817691, 6.22695752, 2.20794022, 3.02902625, 11.57043647, 16.67258228, 18.85603352, 7.61905506
8.53229160, 5.63693179, 2.09761770, 2.78836870, 10.56645636, 17.48427865, 16.88120256, 11.39736812
8.10863737, 4.77755167, 2.29673682, 2.75680975, 13.10438858, 19.47305831, 23.42968203, 12.93831519
8.30060239, 5.70087713, 2.47991935, 3.37268439, 14.00714104, 16.60647464, 21.56096009, 10.40072113
7.02317592, 5.86301970, 2.37170825, 3.32791226, 11.60064653, 12.93058390, 16.44840418, 7.16240183
6.76756973, 6.02079729, 2.36643191, 3.25960120, 10.75174404, 15.77260283, 22.49555512, 7.76047679
7.33995913, 6.21288983, 3.02902625, 3.60208273, 12.40765893, 15.49838701, 23.16786568, 8.70488369
7.41956872, 6.21087755, 2.92831009, 2.93683503, 12.69350227, 15.61729810, 19.63733689, 8.72209837
8.14401621, 6.38553052, 2.59326050, 2.79284801, 12.06130175, 18.44383366, 19.13504638, 9.61639225
8.02028678, 5.64358042, 2.55929678, 2.86792608, 12.72301065, 17.67766953, 19.00592013, 8.71923162
6.87386354, 4.52216762, 2.65518361, 2.66458252, 12.74166394, 16.01561738, 19.07616314, 8.08548081
7.18157364, 4.43846820, 2.93257566, 2.95803989, 12.58868540, 16.34472392, 17.33998270, 8.88960067
7.23360215, 4.76969601, 2.61247010, 2.98747385, 11.70042734, 16.91892432, 16.37146908, 8.46463230
6.80441033, 4.74868403, 2.38222585, 2.67861905, 12.42879721, 18.83679909, 17.49142647, 8.13633824
6.99642766, 4.40170422, 2.58843582, 3.08220700, 13.09866405, 18.38137644, 17.65007082, 9.55510335
6.90651866, 4.57165178, 2.49499499, 3.08625987, 11.73669459, 14.06947049, 17.90670266, 9.44722181
6.46915760, 5.02493781, 2.66926956, 3.31662479, 11.57799637, 15.15998021, 17.15371680, 7.49499833
6.77495387, 4.58802790, 2.53968502, 3.47850543, 13.63268132, 17.69604476, 19.55313274, 7.24568837
6.37181293, 4.57711700, 2.34520788, 2.95803989, 14.49827576, 20.97975214, 22.70407452, 7.76530746
6.73980712, 4.94722144, 2.62678511, 2.82842712, 13.45176568, 20.66276845, 19.02826844, 6.98748882
7.20416546, 4.80624594, 2.56417628, 2.73404462, 12.83647148, 16.81071087, 17.82975042, 7.68927825
6.87204482, 3.99687378, 2.16217483, 3.17017350, 12.49199744, 16.77498137, 18.44993225, 8.41872912
7.09048658, 3.98748041, 2.17370651, 3.71146871, 12.05611878, 20.08482014, 19.63733689, 7.78620575
5.98331012, 4.18628714, 2.30759615, 3.39852909, 11.15123312, 20.29470374, 23.95099163, 7.81824789
6.24499800, 3.60901649, 2.12720474, 2.76586334, 13.01825641, 20.52559378, 20.41261865, 6.68019461
6.59166140, 3.92746738, 2.12132034, 2.70647372, 12.91607526, 20.23857703, 17.36807416, 6.55171733
5.55202666, 4.09267639, 2.49499499, 2.90258505, 10.25304833, 14.76905549, 19.54993606, 6.65957957
6.22896460, 4.39033028, 2.63153947, 2.93257566, 15.14925741, 18.49729710, 21.12699695, 7.36885337
7.07460246, 5.42678542, 2.30217289, 2.77488739, 16.80773631, 19.87712253, 20.16370502, 8.01560977
7.52828002, 5.21775814, 2.43413229, 3.03726851, 13.20321930, 17.02204453, 18.53645058, 7.41282672
8.74642784, 3.94651745, 2.64102253, 2.96647939, 14.52239650, 17.26991604, 15.58123872, 7.77495981
7.94984277, 4.10791918, 2.69258240, 2.59807621, 13.64642810, 17.13913650, 14.86775033, 7.76208735
5.57897840, 4.09878031, 2.37170825, 2.54950976, 12.33288287, 15.59326778, 18.94993404, 7.20416546
6.62382065, 4.09878031, 2.28582589, 2.78388218, 11.97706141, 13.39682798, 20.41874139, 7.34166194
8.05139739, 4.44409721, 2.69722079, 2.77488739, 9.05814551, 12.98556891, 20.74909637, 8.51469318
6.90108687, 4.34165867, 2.46475151, 2.45967478, 9.18150314, 16.16632302, 18.31597663, 8.87271097
6.07453702, 4.11400049, 1.99374020, 2.54460213, 9.99749969, 20.02623280, 15.28561415, 7.47495819
6.84653197, 4.44128360, 2.44948974, 2.77938842, 9.91337480, 20.30086205, 19.52690452, 7.37563557
7.33655232, 4.87852437, 2.59807621, 2.73404462, 10.16734970, 17.84096410, 22.25926773, 7.23532999
6.82458790, 4.63950428, 2.26936114, 2.64102253, 12.53295655, 21.39859808, 26.03699291, 6.15223537
6.30674242, 4.77493455, 2.42899156, 2.75680975, 11.38310151, 20.81405775, 28.57008925, 8.18229797
7.42462120, 4.82700735, 2.56417628, 3.15436206, 12.03017041, 17.38821440, 28.33813685, 8.53961357
8.07465170, 5.20576603, 2.80178515, 3.19765539, 11.96348611, 17.55989749, 30.01999334, 9.35013369
7.66811581, 5.54301362, 2.70647372, 2.54950976, 11.03970108, 15.04410183, 28.73934585, 9.02635031
8.46463230, 5.16962281, 2.35053185, 2.69722079, 12.66392514, 14.91140503, 20.18415220, 6.22093241
8.26286875, 5.22494019, 2.45458754, 2.88963666, 11.19486489, 14.12002125, 23.17703605, 7.65179717
7.30924073, 5.45893763, 2.31840462, 2.56904652, 11.44879906, 18.12801699, 29.48855710, 9.56817642
7.14667755, 5.10147038, 2.50000000, 2.94957624, 12.50999600, 20.06489472, 26.83328157, 9.10357073
7.23532999, 4.19225476, 2.60768096, 3.07814879, 13.43781976, 16.80550505, 25.20515820, 7.20763484
8.99583237, 3.87298335, 2.33452351, 2.87228132, 14.97414438, 15.47336421, 23.91495348, 6.72309453
8.26891770, 3.71819849, 2.46981781, 2.87228132, 14.21882555, 17.17556404, 21.23558334, 6.84835747
6.73980712, 3.48209707, 2.43413229, 2.71569512, 11.72710535, 19.05977440, 26.18778341, 6.60302961
7.71362431, 3.46410162, 2.27486263, 3.12249900, 11.17139204, 19.57868739, 28.42753946, 7.34506637
7.97652807, 3.83405790, 2.12720474, 3.03315018, 10.47497017, 16.37604958, 21.30844903, 7.39087275
6.69514750, 3.68442669, 1.90394328, 2.23047080, 8.03741252, 12.64713406, 15.03163331, 7.27495704
6.02079729, 3.92109679, 2.17370651, 2.37170825, 9.25067565, 11.78134118, 14.88875415, 7.27839268
7.02139587, 4.48051336, 2.43926218, 2.50000000, 11.26055061, 12.29532431, 18.88385554, 8.12403840
7.07106781, 4.12916456, 2.54460213, 2.41867732, 10.30533842, 14.23288446, 17.18865905, 8.14708537
7.40270221, 3.75832409, 2.49499499, 2.47991935, 10.15997047, 15.73054354, 19.30155434, 7.81664890
7.95141497, 3.82753184, 2.14476106, 2.52982213, 9.96242942, 14.29685280, 25.66222905, 8.47053717
8.15168694, 4.12613621, 1.98746069, 2.51495527, 10.00999500, 13.86542462, 25.72450194, 8.85155354
7.49333037, 3.67423461, 2.04939015, 2.23606798, 11.68332145, 18.00347189, 21.85348942, 8.71206061
6.45561771, 3.50713558, 2.06760731, 1.99374020, 10.61131472, 17.98193538, 20.11529269, 7.31436942
6.51728471, 3.39852909, 2.20227155, 2.57390754, 10.85357084, 15.91697207, 19.50192298, 6.74907401
6.65582452, 3.08625987, 2.10356840, 3.03726851, 11.34350034, 15.38993177, 19.30867681, 8.55716074
7.55148992, 3.13847097, 1.76068169, 2.60768096, 11.84271928, 14.87699566, 17.26846837, 9.71210585
7.60591875, 3.25576412, 2.07966343, 2.21359436, 13.09484631, 18.68555592, 17.97359174, 9.35815153
7.43639698, 3.71819849, 2.29128785, 2.50000000, 11.28162222, 17.52426889, 23.81543617, 8.80482822
6.92820323, 3.43147199, 2.02484567, 2.54950976, 10.59952829, 15.48951258, 25.06142454, 8.35463943
6.60302961, 3.59165700, 1.98746069, 2.72029410, 11.01816682, 17.54850421, 20.92008604, 7.03029160
6.96778300, 3.66060104, 2.08566536, 2.79284801, 9.35948717, 16.64106367, 17.36159555, 6.85565460
7.46491795, 3.44601219, 2.13892496, 2.62202212, 9.51446268, 19.81287460, 20.18848682, 8.72496418
8.66458308, 4.07124060, 2.09761770, 2.73404462, 8.95125689, 20.42118998, 24.16867808, 9.16515139
7.71848431, 3.70809924, 1.86413519, 2.65518361, 7.97652807, 17.98541075, 23.16786568, 9.18830779
6.12984502, 3.26343377, 1.89736660, 2.39269722, 10.16734970, 16.99338106, 24.89728901, 9.02496537
5.55427763, 3.65718471, 2.25277607, 2.49499499, 10.82358536, 15.48628425, 24.22189093, 7.98435971
5.97703940, 3.87943295, 4.89131884, 3.23264598, 8.62409416, 15.80664417, 18.99736824, 7.61248974
6.46529195, 3.36526373, 4.83476990, 2.97489496, 8.74928569, 17.13913650, 20.85425616, 7.29554659
7.13442359, 4.02492236, 2.65047166, 2.69258240, 8.51909620, 15.06983742, 21.50348809, 7.99531113
7.62561473, 4.55247186, 3.66060104, 3.13448560, 6.42456224, 17.32700205, 21.69792617, 8.81476035
6.49037749, 3.48209707, 3.49284984, 2.79284801, 7.29040465, 18.47836573, 26.45467823, 8.93728147
5.90338886, 3.73831513, 4.68241391, 3.64005494, 8.93028555, 19.70976915, 23.04506455, 11.22497216
7.14317856, 4.32723930, 5.30565736, 4.72228758, 10.58536726, 22.48110318, 19.90916874, 11.67904106
7.17112265, 4.30697109, 3.64348734, 3.75832409, 10.15997047, 18.15970815, 26.23118373, 10.09702927
6.05805249, 4.14125585, 2.76134025, 2.11541958, 8.60232527, 14.58852289, 26.01922366, 9.66695402
6.78048671, 3.94968353, 2.74317334, 2.83725219, 9.01803748, 14.54991409, 20.29963054, 9.24256458
9.82471374, 3.92746738, 2.60768096, 3.17017350, 12.92381523, 15.49758046, 17.77357589, 8.43208159
9.26687650, 3.29013678, 2.40831892, 2.87228132, 12.58669933, 13.44525939, 21.67140974, 8.18382551
5.74673821, 2.66458252, 2.48495473, 3.06186218, 10.62661752, 13.95707706, 23.15545292, 9.05952537
6.62947962, 2.87662997, 2.38746728, 3.17804972, 10.96357606, 17.14205355, 18.26677311, 10.14026627
7.37733014, 3.44601219, 2.42899156, 3.08220700, 10.85011521, 19.03811966, 17.30317890, 13.63726512
7.69577806, 3.70809924, 2.83725219, 2.87228132, 11.08264409, 18.30915072, 21.54994200, 13.07574090
7.98592512, 3.53199660, 2.61247010, 2.74317334, 9.48683298, 14.64240417, 19.94241711, 8.93588272
6.59355746, 3.09838668, 2.30217289, 2.86356421, 9.22496612, 17.48070365, 16.46359620, 8.44985207
7.47830195, 3.27871926, 2.15638587, 2.74317334, 9.79413090, 21.17309614, 18.41941910, 10.41993282
8.00156235, 4.28077096, 1.89736660, 2.33987179, 9.85520167, 18.26061335, 21.61191801, 9.92093746
6.71379178, 4.33589668, 1.87082869, 2.01246118, 10.88577053, 17.98819057, 19.97811302, 7.13267131
6.78601503, 3.40220517, 2.17370651, 2.50998008, 11.38749314, 20.06925509, 17.16610031, 7.06929982
6.78417276, 3.49642675, 2.35584380, 2.98747385, 10.17718036, 19.68184443, 18.63397435, 7.09048658
6.94982014, 3.78813938, 2.16794834, 2.94533530, 11.99687459, 18.12318956, 18.65743819, 8.89803349
7.32461603, 4.09572948, 2.20794022, 2.82400425, 11.56395261, 15.08973161, 19.83746456, 8.48675439
7.28182669, 4.47213595, 2.37697286, 2.90688837, 9.48419738, 13.75227254, 20.72679425, 6.43816744
6.32850693, 4.57165178, 2.11541958, 2.68793601, 10.68994855, 15.06651917, 18.92815363, 5.91185250
6.94262198, 4.74605099, 2.14476106, 2.56904652, 9.44060379, 18.16246129, 17.13475999, 5.88642506
7.16763559, 3.76497012, 2.23047080, 2.73404462, 10.23108010, 19.61886847, 14.96996994, 5.40138871
6.02494813, 2.89827535, 1.87749834, 2.78836870, 10.84435337, 20.03559333, 23.07216938, 7.69577806
5.98539890, 3.46410162, 1.86413519, 2.56417628, 8.98610038, 16.81294144, 25.94947013, 8.51469318
5.52946652, 3.65376518, 2.03715488, 2.38222585, 9.28170243, 13.59871317, 23.60243631, 7.67626211
7.51831098, 4.06201920, 2.46981781, 2.82400425, 11.81947545, 13.90683285, 23.14951403, 7.66648551
8.47053717, 3.76497012, 2.59807621, 3.11046620, 12.66688596, 17.19156770, 21.49534833, 6.89383783
6.81542368, 3.32039154, 2.25831796, 3.07408523, 12.63427877, 17.36735443, 20.53411795, 6.23097103
7.84856675, 3.70809924, 2.28035085, 3.13049517, 13.08051987, 14.19154678, 21.10094785, 6.56886596
8.21888070, 3.51425668, 2.28035085, 3.05777697, 12.89379696, 14.78343668, 19.63033367, 7.69090372
7.01248886, 3.47491007, 2.31300670, 2.81513765, 13.65558494, 14.37793448, 20.16370502, 7.21976454
6.18869938, 3.38378486, 2.40831892, 2.49499499, 13.41640786, 16.25730605, 20.90095692, 7.83900504
6.11350963, 3.47131099, 2.36114379, 2.72488532, 13.75409030, 16.81814496, 16.11055555, 8.29759001
6.22695752, 3.18198052, 2.31300670, 2.96647939, 12.29634092, 14.18185460, 11.46298390, 6.47302093
5.29150262, 2.47991935, 2.04939015, 2.67861905, 9.44854486, 15.92560831, 10.16120072, 6.08070720
7.14142843, 2.66926956, 1.87082869, 2.55929678, 11.55746512, 19.86705816, 14.88959368, 5.79223618
7.60756203, 3.25192251, 1.90394328, 2.61725047, 13.70948577, 16.73768204, 16.64932431, 6.12168278
6.15020325, 3.65376518, 2.12132034, 2.67861905, 12.73773920, 14.00178560, 21.81398634, 7.61248974
6.44980620, 3.15436206, 2.15638587, 2.46981781, 11.54014731, 16.55823058, 21.83746780, 6.52111954
6.28887907, 2.94108823, 2.26936114, 2.70647372, 11.84271928, 18.50945704, 20.08979841, 5.80517011
6.05185922, 2.93257566, 2.31300670, 3.04138127, 10.87313202, 18.52835665, 21.62232642, 8.12249962
6.39921870, 2.70647372, 1.91702895, 2.71569512, 9.00416570, 14.64667198, 17.33277243, 8.99722179
5.98122061, 2.72029410, 2.05548048, 2.52982213, 10.38749248, 14.59366301, 18.26608880, 8.18229797
6.86294397, 3.89230009, 2.56904652, 2.95381110, 12.86953768, 15.70986951, 21.66160197, 8.26438140
7.15716424, 4.17731971, 2.37170825, 2.78836870, 12.61645751, 16.12296499, 18.89973545, 8.03274548
6.99285349, 3.53199660, 2.25277607, 2.57390754, 12.29837388, 15.90047169, 19.13177984, 7.75886590
6.94802130, 3.47850543, 2.45967478, 2.59326050, 11.45753027, 13.95976361, 19.87775138, 8.85014124
5.09656747, 2.92831009, 2.39791576, 2.94108823, 12.11300954, 15.28724959, 16.59518002, 9.12003289
6.01664358, 3.01662063, 2.26936114, 3.33916157, 14.01784577, 18.41195264, 16.33401359, 8.93028555
7.76691702, 3.59513560, 2.39269722, 3.11849323, 14.28373201, 19.13569962, 18.42756088, 10.70747403
7.41451280, 3.46410162, 2.36643191, 2.97489496, 13.27215130, 22.45439823, 18.49729710, 10.11063796
7.20590036, 4.19523539, 2.01246118, 2.89395923, 11.34019400, 23.99687480, 17.94087512, 8.03896760
7.67300463, 4.67439836, 2.13307290, 2.96226265, 10.80624819, 20.44993888, 21.03033523, 9.06917857
8.15015337, 3.92109679, 2.43413229, 2.86356421, 13.82479656, 17.38102414, 20.00062499, 10.77845072
10.06727371, 4.43565102, 2.29673682, 2.85482048, 12.53295655, 17.78833888, 18.55195407, 9.94987437
10.31867240, 4.73022198, 2.40312297, 2.94533530, 8.58632634, 17.60184649, 21.54123952, 8.79914769
8.44985207, 3.60555128, 2.42383993, 2.71108834, 10.62896985, 20.80745059, 21.27851029, 9.94736146
10.47019580, 3.59165700, 2.13892496, 2.85482048, 12.14701609, 21.81112102, 17.72850812, 10.05857843
10.73079680, 3.96547601, 2.20227155, 2.86356421, 11.36881700, 17.26340059, 19.66596044, 9.21818854
9.39813811, 3.83731677, 2.76134025, 3.30151480, 9.71467961, 17.44921202, 20.68695241, 8.01716908
9.06504275, 3.73162163, 4.07737661, 3.69459064, 11.36001761, 16.77572651, 17.15298808, 7.10281634
10.01498877, 6.76017751, 12.88603896, 5.50227226, 13.67662239, 22.16021209, 19.96935152, 7.78138805
13.09198228, 7.77013513, 15.73848786, 6.97137002, 11.69508444, 27.74076423, 22.85716518, 8.92748565
14.11736519, 6.58976479, 10.97838786, 5.79439384, 11.60387866, 24.40133193, 21.82086158, 9.05538514
12.47697880, 6.02079729, 9.32067594, 4.18927201, 13.72042273, 20.93740672, 19.80530232, 9.34344690
9.92723526, 5.06951674, 11.25277743, 5.07198186, 11.88276062, 21.59976852, 18.62726496, 9.85773808
10.71914176, 4.55521679, 12.20040983, 5.48634669, 11.32254388, 22.89159234, 20.82426469, 12.62339099
11.37541208, 4.05894075, 11.06910114, 4.97995984, 12.37537878, 23.08408543, 20.56453257, 13.96155435
9.59426912, 5.65906353, 10.68293031, 5.81807528, 10.82474018, 25.14159899, 19.09777474, 11.64688800
7.90569415, 6.26099034, 11.19933034, 5.76411311, 9.91841721, 26.48631722, 18.16590212, 9.26147936
7.72981242, 6.46142399, 9.39813811, 5.31507291, 12.88118783, 27.13853349, 19.83998488, 8.96939240
10.16612020, 6.30872412, 10.98749289, 5.61248608, 12.62438117, 30.67939048, 21.04221946, 8.53668554
9.69407035, 5.12347538, 9.88938825, 4.80884602, 10.59245014, 28.74891302, 19.88341017, 7.47328576
7.50666371, 6.32455532, 10.14273139, 5.68990334, 11.75478626, 20.96962088, 18.44857718, 8.29457654
7.17112265, 5.94558660, 11.41709245, 5.91607978, 12.03432591, 17.75880064, 19.11543879, 10.48451239
7.06576252, 6.13392207, 9.52627944, 4.50832563, 11.38529754, 22.91178736, 22.00965697, 9.73524525
8.20822758, 7.45150991, 10.92245394, 4.63411264, 10.97724920, 26.50801766, 20.93501851, 10.47019580
8.54985380, 7.46324326, 13.17668395, 5.23688839, 11.43241007, 21.58182105, 18.87326151, 10.70980859
8.19145897, 10.38628904, 18.46956957, 7.20416546, 14.15891945, 18.78430196, 24.74267568, 10.22741414
9.79540709, 10.42832681, 20.22374842, 8.71349528, 13.21173721, 37.74718533, 31.52538660, 15.60128200
10.64424727, 8.48086081, 17.26122823, 9.37416663, 11.50108691, 44.53678255, 30.34880558, 19.46278500
10.21518478, 13.20132569, 31.32690537, 15.08724627, 15.98905876, 35.98992915, 26.82629307, 18.87922138
10.68410034, 15.91068823, 36.70524486, 16.23422311, 17.16682848, 30.41997699, 25.80310059, 17.08434956
13.17668395, 19.31967909, 39.44775025, 21.20436276, 16.08493084, 30.34674612, 24.93792293, 15.90125781
16.17637166, 24.29763363, 54.40404397, 27.19880512, 17.58905910, 33.01211899, 31.96834372, 20.41139388
15.05739021, 22.87793697, 60.17349915, 24.31768903, 17.08508121, 34.26514264, 33.50970009, 20.22127592
13.02017665, 19.78130430, 57.81219595, 19.53202498, 16.75485004, 33.25056390, 28.41698436, 12.31361036
13.23631369, 22.00000000, 56.36643505, 20.93382430, 18.04161855, 40.11296548, 26.70908085, 16.68232598
13.55359731, 22.01533556, 54.80168793, 22.89814403, 15.86505594, 39.82869569, 20.21633003, 19.11805429
15.71305190, 22.51943605, 50.74347249, 26.13426869, 15.22251622, 32.61058110, 23.08300240, 19.30932417
14.17832853, 19.43836413, 45.41750764, 26.01874324, 14.48533741, 34.72751071, 24.47856205, 17.48141871
11.57151675, 19.87775138, 51.26109636, 25.49558785, 12.85301521, 34.80229877, 21.12048768, 20.38565672
13.65650028, 33.62625462, 64.49980620, 31.33807588, 17.06092026, 29.57870856, 23.51807815, 23.29806859
13.46291202, 32.85993001, 66.73717105, 31.64450979, 17.95550055, 33.78535186, 32.61326417, 23.11330785
13.58031664, 26.10124518, 60.02915958, 30.35004119, 17.97845933, 40.70319398, 36.33042802, 22.96736816
12.45491871, 22.20472923, 49.46741352, 26.26451979, 17.05359200, 33.04315360, 31.16287856, 20.57790077
11.88170863, 21.64197311, 59.27794700, 25.73858970, 14.70119043, 24.69362266, 27.71236186, 19.73638771
11.76329036, 25.58808316, 63.83337685, 28.26128093, 14.59623239, 27.98615729, 25.53135327, 15.95148896
9.54201237, 20.03808873, 50.02849188, 21.75488451, 15.90440191, 37.76704913, 24.28065073, 14.63301063
9.38349615, 15.21840990, 49.23641945, 14.34485971, 15.19128039, 40.85003060, 22.49166512, 15.69155824
9.10906142, 13.63634848, 45.08935573, 12.05819224, 13.01345458, 33.17152393, 22.71453279, 14.58166657
11.24388723, 12.77791063, 35.68718257, 13.15199605, 14.85345078, 28.88468452, 22.86919325, 13.70127731
13.07669683, 16.25730605, 42.05413178, 17.74612634, 14.86354601, 26.17154944, 21.72498562, 16.39207125
11.38419958, 15.67083278, 39.84595337, 16.82928994, 15.33867661, 34.26733138, 21.13291272, 17.61178583
9.90075755, 11.07700320, 28.71846096, 11.09617051, 15.43453919, 36.14795983, 18.42688254, 18.49797286
10.76336379, 9.56556323, 26.14192036, 9.67729301, 14.70034013, 24.78759771, 20.30948054, 16.76380029
11.70256382, 8.18077013, 21.95335965, 9.17196816, 16.59216683, 23.95881884, 20.66700269, 14.21618796
11.34239834, 10.51903037, 22.47442991, 10.47735654, 16.19953703, 26.59041181, 25.33870557, 16.83226069
9.94233373, 11.59849128, 26.56313235, 9.82471374, 17.10263138, 22.71728417, 27.21442632, 15.34193599
9.80943423, 11.57151675, 29.71826038, 10.10198000, 17.23513853, 23.86943652, 22.66439940, 14.75804865
8.62119481, 9.23985931, 23.37787415, 9.21004886, 13.65650028, 26.95412770, 22.94068438, 14.85092590
6.46722506, 7.81344994, 20.14696007, 7.92464510, 12.92768347, 22.23566954, 27.58804089, 12.26580613
8.62409416, 9.63327566, 23.24112734, 8.52203027, 13.62350909, 22.62354968, 26.60216157, 15.77101772
9.51314880, 9.51840323, 19.63988289, 7.62233560, 14.89714738, 24.51836047, 21.85634919, 14.92146105
8.77211491, 9.24932430, 18.47768925, 8.55716074, 15.28724959, 18.58897523, 26.97081756, 12.18195387
9.32201695, 8.25832913, 17.15808847, 8.03118920, 14.96579433, 21.33190099, 26.36948995, 12.41370211
10.41273259, 6.43816744, 13.70675016, 5.03487835, 13.87533783, 22.93523490, 19.91293549, 13.30413470
10.96129554, 5.89703315, 13.03456942, 5.09656747, 14.10584985, 21.05053444, 19.79456996, 12.99807678
10.37545180, 4.69574275, 11.12205017, 4.45813863, 12.34807677, 25.23687778, 22.10429822, 12.50000000
8.55423872, 4.13521463, 11.15123312, 4.93457192, 13.78586232, 24.03174983, 20.80745059, 13.47404913
7.88986692, 4.40454311, 10.87313202, 5.37354632, 15.14843226, 21.08494724, 23.42861498, 12.80136711
7.97025721, 4.13219070, 9.67212490, 4.16833300, 11.07925990, 24.06345777, 22.57321422, 12.68660711
10.50119041, 3.54259792, 8.49852928, 3.73162163, 10.08340220, 28.78932094, 16.49393828, 17.66988964
10.90985793, 4.46374282, 10.35615759, 5.09165985, 11.93733639, 26.72732684, 15.30686121, 17.59971591
7.97809501, 4.80364445, 12.03847997, 5.96238207, 14.20387271, 19.47562579, 18.26814167, 10.50119041
8.11480129, 4.23674403, 11.74521179, 5.36190265, 15.91540135, 16.54539211, 24.05150723, 10.51903037
9.04986188, 4.28077096, 10.75871740, 5.00499750, 15.62929941, 25.80019380, 28.28206145, 14.68843082
9.73781290, 3.82753184, 7.68114575, 4.62601340, 14.12267680, 27.26994683, 23.38910003, 13.90053956
9.02219485, 3.96547601, 7.24223722, 3.90832445, 15.04410183, 20.45849457, 18.61652492, 10.24451073
9.16242326, 3.77160443, 7.69090372, 3.54612465, 14.98499249, 21.25441131, 22.13650831, 10.25060974
11.22163090, 3.09838668, 9.53021511, 4.30116263, 13.61708486, 25.35892348, 24.33824151, 12.81503024
10.35253592, 3.04548847, 9.31933474, 4.36749356, 14.84587485, 25.94995183, 23.30075106, 14.91056672
7.91359590, 2.95803989, 6.68954408, 3.48926926, 15.02830662, 24.71335671, 19.38620644, 12.33085561
10.08092258, 3.14245127, 8.02340327, 3.17017350, 12.88506888, 20.77498496, 18.30915072, 9.89823217
10.28105053, 4.08350340, 9.30322525, 3.83079626, 12.38446608, 16.63956129, 18.92815363, 10.22252415
8.74499857, 4.40738017, 8.95823643, 4.12613621, 11.44224628, 16.87898101, 23.03041467, 12.99903843
11.24833321, 3.96232255, 7.81504958, 3.67083097, 11.78346299, 14.21882555, 20.76294777, 12.96244576
12.55089638, 3.94334883, 6.58407169, 4.07124060, 12.34908904, 17.81010949, 12.56980509, 13.00961183
10.42712808, 3.82099463, 7.54983444, 4.09572948, 11.71110584, 19.59017611, 13.84918770, 13.37908816
10.32835902, 3.65718471, 11.23498999, 4.21307489, 11.18145787, 18.92485139, 17.42555595, 10.97611042
11.29380361, 3.93700394, 11.06345335, 4.70106371, 11.68866973, 19.57677195, 22.21879835, 11.75797602
10.84550598, 3.60208273, 7.66648551, 4.08962101, 11.21048616, 17.62313820, 21.97327923, 11.86591758
9.67341718, 3.44238290, 8.10246876, 3.79143772, 8.44541296, 14.96662955, 15.01748980, 15.07149628
8.82609767, 3.94651745, 8.44245225, 3.88265373, 10.35495051, 13.55728586, 15.92089822, 16.59819267
10.17349497, 4.27492690, 8.59360227, 3.83405790, 13.69671493, 13.24764130, 19.17811252, 18.14180256
9.81070844, 4.32723930, 9.03880523, 4.07430976, 13.83564238, 17.89343455, 17.09020187, 17.70381315
8.46020094, 3.94017766, 10.85587399, 4.39886349, 13.19564322, 16.01717828, 18.58494014, 14.14743793
9.96242942, 5.94138031, 12.62339099, 4.90917508, 13.11201739, 7.49166203, 20.23178193, 13.19753765
9.68633057, 6.27295784, 12.15318888, 5.92663480, 12.79941405, 8.18535277, 21.54181979, 15.08807476
10.47258325, 4.79843725, 11.01476282, 5.84380013, 12.35111331, 8.38003580, 21.15301397, 16.44308365
11.58986626, 4.83476990, 12.94314490, 4.71433983, 11.22831243, 8.66025404, 24.08111293, 14.25394682
9.93101203, 5.47950728, 14.21794641, 5.06458290, 11.24499889, 8.97217922, 24.36288160, 12.46294508
8.63423419, 6.35413251, 13.50462884, 5.42908832, 9.72496787, 10.00999500, 21.45227261, 11.95826074
7.78138805, 6.74536878, 14.87447478, 5.99583189, 10.86508168, 12.26784415, 20.68997342, 12.30548658
10.71564277, 6.28887907, 14.09609875, 6.26897121, 13.56558145, 11.24388723, 17.78412213, 10.29563014
12.05300792, 5.49090157, 13.78858223, 6.68954408, 13.65192294, 9.91211380, 20.01561890, 10.55935604
10.75871740, 5.66568619, 14.69948979, 6.54025993, 13.60606482, 10.48928024, 20.08046314, 12.81990640
9.19102823, 8.39196044, 20.23919465, 7.54486580, 15.95305613, 10.64776972, 16.17637166, 12.95858789
7.01070610, 8.74499857, 22.37297477, 7.87718224, 14.86186395, 8.79914769, 15.38505769, 11.26055061
7.06399320, 6.74166152, 16.88786547, 5.99791630, 11.11867798, 7.45150991, 17.10482388, 11.04196540
8.46610891, 6.14817046, 15.41671171, 5.75760367, 11.03290533, 8.99861100, 21.88549748, 12.05300792
8.02184517, 6.32257859, 17.18284028, 6.43039657, 9.93101203, 8.34116299, 21.20672063, 9.73139250
8.23711114, 7.19895826, 17.46067009, 6.19475585, 11.52388823, 8.36062199, 17.91158843, 9.28574176
8.76641318, 7.50832871, 20.17548017, 6.50960828, 11.94047738, 10.01498877, 21.70311038, 11.94047738
7.27151979, 8.02651855, 21.93570149, 7.04982269, 12.32984185, 9.18422561, 20.70084539, 13.23820229
6.85747767, 8.07619960, 22.93795980, 7.27151979, 14.90637448, 8.52496334, 18.56609814, 11.83110308
10.14273139, 7.62725377, 20.74728898, 7.28868987, 14.58252379, 10.13039979, 21.13941816, 9.02358022
9.92723526, 7.93882863, 17.43559577, 7.19027120, 15.50725637, 11.29048272, 21.46683489, 8.77068982
9.67729301, 8.95125689, 21.93342199, 8.73355598, 13.88434370, 10.75755548, 18.05408541, 12.12641744
12.38244725, 9.91085264, 22.44604642, 9.50789146, 17.51142484, 9.47364766, 15.66445020, 13.43037602
12.39052057, 9.24932430, 19.71737812, 9.67212490, 19.81413637, 9.66695402, 18.41263153, 14.86438697
9.47100839, 7.49833315, 19.76423538, 8.40386816, 15.11538951, 9.56033472, 20.41384334, 15.02331521
10.37424696, 7.97809501, 19.15854901, 6.63324958, 14.09698549, 10.41993282, 21.13527856, 13.27685957
13.10820354, 11.27718937, 23.28894588, 8.94706656, 14.19506957, 11.38968832, 19.92611352, 13.99374860
12.42577965, 12.57278808, 27.95174413, 9.98248466, 16.65758086, 11.42475383, 18.92485139, 15.99531181
12.29430763, 10.91329464, 24.95846550, 8.57612966, 17.95271567, 12.81503024, 18.88253161, 15.39724001
10.79814799, 10.56645636, 19.63924642, 7.91517530, 19.21067412, 11.71324037, 17.03085435, 10.64659570
8.36510610, 9.86027383, 16.48635800, 7.01783442, 17.04699387, 12.49299804, 19.82864090, 9.30859818
7.62233560, 8.19908531, 16.93000295, 6.64266513, 13.80217374, 14.28460710, 20.66397832, 11.47497277
6.78969808, 8.48969964, 18.36096403, 7.28525909, 13.94542936, 12.70924860, 16.97571795, 13.81394223
6.11964051, 7.80064100, 16.22960258, 6.95341643, 14.91727187, 11.18481113, 17.66352173, 12.42678559
7.39932429, 7.93095202, 15.84534632, 6.91736944, 14.29073126, 11.74627601, 19.24577876, 8.89803349
8.75357070, 8.36361166, 17.01249541, 6.08687112, 11.65975986, 14.26621884, 20.30948054, 11.06458314
7.12741187, 8.14555093, 18.53712491, 6.56696277, 16.38673244, 14.00267832, 22.72278592, 11.51086443
6.16035713, 7.52163546, 19.85510010, 7.94197708, 16.25038461, 14.20475273, 22.79034883, 9.34344690
9.93478737, 8.81759604, 21.91004336, 8.20213387, 11.52388823, 14.89379065, 18.88385554, 11.80677771
10.54039847, 9.25202680, 21.46799944, 7.67626211, 10.37183687, 12.60158720, 17.39252713, 13.95707706
8.50881895, 10.66184787, 25.39242013, 10.64894361, 11.08377192, 10.95787388, 17.57412871, 12.84036604
7.36545993, 10.44868413, 28.01428207, 10.94074952, 11.63185282, 13.73954148, 23.45421071, 12.57477634
7.25430906, 7.34166194, 24.90682637, 8.06225775, 10.22863627, 14.76058942, 29.10369392, 14.34050208
8.91066776, 7.96868873, 22.62465469, 8.45281018, 10.78540681, 16.50227257, 25.05344288, 13.56189515
8.08084154, 8.92188321, 22.27442480, 8.11788150, 12.12435565, 18.26608880, 20.46826812, 12.77986698
7.08872344, 8.51028789, 21.35883892, 7.37224525, 12.43382483, 22.49611077, 16.71675806, 16.30567386
8.50441062, 7.29554659, 19.79267541, 8.17006732, 15.09304476, 26.83747380, 16.97571795, 14.95576812
8.42763312, 7.67300463, 19.95620204, 9.13646540, 15.39886359, 22.96519105, 19.03680645, 14.89798644
7.02495552, 8.86143329, 22.57487541, 9.00694177, 11.61679818, 16.52498109, 18.69692488, 15.06900793
6.73795221, 9.09532847, 23.42061058, 8.99722179, 10.55817219, 14.70799103, 25.20019841, 12.07476708
9.18286448, 7.88986692, 20.51828453, 9.49473538, 12.11300954, 14.44991349, 23.22121874, 14.54046079
11.38968832, 7.83581521, 22.22779791, 10.05609268, 11.49673867, 18.54319282, 16.36459593, 16.45828059
10.99772704, 9.24121204, 22.36515146, 9.02219485, 10.97838786, 18.31324657, 19.01841213, 15.69076161
7.98435971, 8.57321410, 22.02952564, 8.44837262, 9.75704873, 13.62901317, 17.62313820, 15.41184609
8.07000620, 7.86924393, 22.26207537, 9.72882316, 10.45585960, 18.25924423, 18.57081043, 17.02865232
10.60070752, 7.26808090, 17.31184566, 8.17771362, 11.38310151, 26.06050652, 23.19967672, 15.17234326
11.43459663, 6.53834842, 14.56794426, 5.72276157, 11.74414748, 26.59746228, 24.95495943, 15.96871942
11.73349905, 6.87749955, 16.28189178, 6.04979338, 15.21430248, 22.18614432, 26.58947160, 19.40360791
15.00416609, 5.69209979, 16.36688730, 7.02317592, 14.69183447, 21.58934923, 27.11503273, 21.88949520
16.07249203, 5.55427763, 14.73007128, 6.88476579, 14.43520003, 26.75724201, 22.77388856, 20.18786764
14.26621884, 8.12096053, 17.75598491, 9.06917857, 14.09875881, 28.68884801, 20.38688304, 18.66681548
13.67570839, 8.58050115, 20.12647510, 9.71982510, 12.87439319, 23.64265214, 25.37419949, 20.39423938
12.06855418, 6.37573525, 15.71225636, 7.16763559, 14.41353531, 17.87875835, 26.08543655, 18.50405361
9.41541290, 4.95479566, 10.31140146, 5.91185250, 11.78028013, 16.37223259, 24.04007072, 14.19506957
6.53452370, 4.33877863, 10.26279689, 5.24880939, 12.84425942, 18.53779922, 24.08215107, 11.01249291
12.07373182, 5.27494076, 11.01249291, 5.47265932, 13.82389236, 19.09973822, 22.78760628, 14.56193668
15.00333296, 6.33442973, 11.39517442, 5.50227226, 9.76857206, 17.11359109, 20.55602102, 15.59406939
13.38562662, 7.01783442, 14.30122372, 6.77864293, 11.13889582, 16.30337388, 20.67728222, 14.88203615
11.87644728, 6.73609679, 13.48517705, 6.74722165, 14.90134222, 16.78541033, 22.78815482, 13.39122847
11.16355678, 5.44518136, 12.02289483, 5.22972275, 13.66565037, 15.64688467, 20.15192299, 12.30142268
10.61367043, 5.44288526, 11.87855210, 4.56344168, 10.39110196, 17.29306219, 19.85572965, 12.25051019
9.55641146, 6.52303610, 10.41273259, 4.43846820, 12.53993620, 19.15398131, 21.15360489, 11.82264776
9.28170243, 6.18667924, 12.63922466, 5.44747648, 13.85099274, 21.18962010, 20.17919721, 18.53982201
11.40833029, 5.22015325, 13.34822086, 6.20685105, 12.05197079, 20.61613446, 20.30209349, 20.14261651
10.74476617, 7.57297828, 12.03432591, 6.36003145, 11.46734494, 16.71601029, 18.76965636, 14.21706721
7.43975806, 7.88511255, 13.03552837, 6.32850693, 13.55359731, 14.82228053, 18.56475155, 11.24277546
11.79088631, 5.74891294, 12.18708333, 5.88217647, 14.38314986, 17.52712184, 23.76920276, 13.58951802
13.35290231, 6.79521891, 13.17288883, 6.59734795, 14.65008532, 20.50487747, 24.77246455, 13.55636382
12.99326749, 7.31949452, 14.28723206, 6.43428318, 12.48098554, 20.18477149, 21.02260688, 13.17193987
11.45425685, 5.53398591, 11.46407432, 4.51386752, 11.16131713, 17.61604382, 20.86624068, 13.21173721
8.82326470, 4.32145809, 10.63484838, 3.85032466, 13.36319573, 17.84586787, 19.95181696, 14.29597846
9.33943253, 5.54752197, 11.68973909, 4.92442890, 12.75735082, 19.77751248, 21.29730030, 16.57256769
8.18229797, 6.91013748, 9.75448615, 5.25832673, 11.62217708, 17.13257132, 25.49607813, 16.19722198
7.89936706, 5.99583189, 7.43807771, 4.64758002, 14.19242756, 14.96078207, 24.93641915, 16.22421030
8.68331734, 4.08350340, 6.94082128, 4.37035468, 14.21706721, 16.14852934, 21.96986573, 17.66564462
11.48041811, 4.47493017, 7.19027120, 4.03422855, 14.41787086, 15.66045976, 21.97726098, 15.48063306
12.36729558, 4.66636904, 8.95963169, 4.37892681, 13.76045057, 16.38291793, 24.34080935, 13.80036231
11.44443096, 5.32212364, 9.47760518, 4.41304883, 9.95740930, 20.10348229, 21.18785029, 12.76322843
11.54014731, 5.40601517, 7.93410360, 4.04969135, 11.30376044, 21.44236461, 19.30932417, 9.88053642
9.96242942, 4.38748219, 6.84105255, 3.86975451, 12.66096363, 17.56274466, 20.23363536, 11.47606204
9.78391537, 4.24852916, 8.30511890, 4.63680925, 12.82478070, 14.25219281, 19.34037228, 11.06006329
11.15907702, 3.68781778, 8.86707393, 4.72493386, 12.42376754, 19.68057418, 21.07190072, 14.78850905
10.40552738, 2.97069016, 8.40386816, 3.59513560, 10.99545361, 19.24253102, 20.39423938, 15.91540135
8.51762878, 3.59165700, 8.29608341, 3.51069794, 12.04989627, 14.41266804, 21.47964152, 12.43483012
11.47170432, 3.94334883, 8.60958768, 4.10791918, 11.83004649, 15.88080602, 23.55153923, 13.03648726
12.40765893, 3.96547601, 8.51616111, 4.24558594, 10.27618606, 17.25253605, 24.57386823, 13.07860849
11.63400189, 3.68442669, 7.14317856, 3.97492138, 15.48789850, 22.08506283, 19.90288924, 13.11201739
13.00865097, 4.72228758, 5.65685425, 3.94651745, 15.67402310, 24.09149227, 18.00833141, 15.74087037
11.95512442, 5.41294744, 4.28952212, 3.31662479, 10.41873313, 22.88340010, 21.46799944, 16.92926460
11.02723900, 4.40454311, 3.63661931, 2.67394839, 13.11392390, 26.19398786, 19.13177984, 15.84219051
10.19436119, 5.54526825, 10.00499875, 4.87083155, 14.67651185, 27.19420894, 22.73543490, 13.63176438
7.58122681, 5.27494076, 9.82089609, 5.11615090, 10.75755548, 28.31960452, 27.10212169, 12.02393446
6.31070519, 3.36897611, 2.51495527, 3.50356961, 11.15907702, 31.25979846, 24.52396787, 12.61546670
7.50499833, 3.86652299, 2.36643191, 4.75131561, 13.75045454, 31.42093251, 19.70913494, 13.21552118
7.81344994, 3.80460248, 2.35584380, 5.23211238, 13.82479656, 32.96020328, 22.17487317, 12.58471295
8.06070717, 4.22788363, 2.31300670, 4.12310563, 12.05093357, 32.53843881, 25.50686182, 13.48795759
8.32766474, 6.71006706, 9.05124301, 4.59347363, 10.49285471, 24.33361872, 23.17811468, 13.18332280
8.24924239, 9.02080928, 20.94039159, 7.41619849, 9.87041033, 18.28592355, 22.91015059, 11.08377192
9.29112480, 8.53229160, 23.46966127, 8.50294067, 9.33005895, 26.39981061, 21.12818023, 16.35924815
9.50263121, 7.01783442, 15.90282994, 7.19027120, 12.33389638, 28.01472827, 19.87209098, 19.63288058
10.55461984, 7.93567892, 14.46547614, 6.69141241, 13.59503586, 26.98934975, 22.45105788, 19.23278451
11.18704608, 7.88511255, 14.27147505, 8.24621125, 12.29939023, 24.73004246, 21.18490028, 17.16901278
10.76800817, 6.58407169, 10.04365471, 7.95298686, 14.34224529, 24.23943069, 21.17545749, 17.40617706
8.84731598, 5.34555890, 7.54320887, 6.03324125, 13.40522286, 31.51745548, 27.62697957, 17.21118822
8.97357231, 4.48330235, 4.66100847, 6.05392435, 11.15347479, 34.98070897, 25.34314503, 11.63829884
9.76345226, 4.59075157, 4.14427316, 6.59545298, 13.82027496, 29.21472232, 19.67612767, 10.79235841
6.86658576, 3.95284708, 5.20576603, 6.72681202, 16.47725705, 25.28586562, 19.57038579, 14.50775655
6.43428318, 5.43139025, 7.38748942, 5.89703315, 22.20304033, 33.93523243, 17.83816134, 12.70826503
8.25984261, 6.02909612, 6.77495387, 6.75832820, 23.86262768, 34.41438653, 20.52863853, 14.59366301
9.32737905, 6.55171733, 4.50555213, 7.47663026, 17.37239189, 42.80595753, 25.75364052, 15.98671323
9.44192777, 9.00138878, 4.69308001, 6.84287951, 11.63722476, 41.30768694, 25.35152855, 12.08097678
9.79923466, 8.42318230, 8.43059903, 7.08519583, 12.02289483, 28.47367205, 22.90469384, 17.70098867
11.65439831, 8.67467579, 14.45164351, 7.87718224, 12.81210365, 25.40177159, 25.05344288, 19.18071949
12.58371964, 11.94780315, 18.57215658, 9.44060379, 12.49399856, 17.49714262, 23.92226996, 17.46639631
13.02881422, 10.23352334, 15.19868415, 8.17465596, 14.27322668, 24.45352735, 25.14955268, 17.69251254
12.62636131, 6.54599114, 9.16787871, 5.40601517, 14.38575684, 32.08192638, 30.88203361, 17.39468310
10.40432602, 7.15716424, 11.17139204, 4.97493719, 12.19221063, 31.04512844, 28.55871146, 15.96871942
10.50595069, 7.48164420, 13.56005162, 5.68330890, 12.32984185, 30.32078495, 23.34416415, 14.58338095
9.15559938, 6.69888050, 14.15008834, 6.30674242, 12.12847888, 28.24668122, 22.41372347, 15.56357928
9.18830779, 6.40702739, 14.02141220, 6.35216499, 11.89117320, 23.07379466, 19.39136406, 14.74788120
10.00249969, 5.95399026, 13.57663434, 6.28689112, 11.66726189, 23.47232413, 18.78163997, 13.12440475
9.38749168, 6.14003257, 13.18047799, 6.27295784, 12.07373182, 22.97444232, 20.34760428, 12.39858863
10.92588669, 7.62561473, 12.44688716, 6.41482658, 13.87173385, 24.64497920, 21.27498531, 12.90155029
12.29837388, 6.79521891, 10.27131929, 5.74673821, 16.93590860, 25.34363825, 19.27109234, 12.88991854
11.56179052, 6.03738354, 10.83051245, 5.79007772, 14.61848145, 25.89594563, 19.35135654, 10.74709263
11.24166358, 5.61471282, 11.42147101, 5.89067059, 10.22374687, 23.95725360, 18.28113782, 13.62350909
10.58654807, 5.21775814, 9.91085264, 5.00749438, 13.50833076, 16.01405633, 17.24818831, 13.24481030
9.08707874, 5.87579782, 10.14765983, 5.00999002, 13.45826883, 14.71393897, 18.76899038, 10.81780939
10.80162025, 5.62361094, 9.60598772, 5.17204022, 12.25051019, 16.40883908, 20.71291867, 12.05197079
9.22903028, 5.48406783, 11.86275685, 5.73803102, 12.07062550, 16.29647201, 23.16192997, 10.79004171
10.18209212, 5.38052042, 13.75954214, 6.00416522, 12.32071427, 18.95652922, 24.91936998, 15.70270677
10.70747403, 6.27295784, 16.71675806, 6.14613700, 13.23820229, 20.76354979, 24.20485488, 15.92639319
7.43471587, 7.51831098, 17.99861106, 6.27495020, 10.34891299, 18.97630101, 21.89235026, 10.34770506
10.02621564, 6.34231819, 13.55544171, 6.68019461, 9.10494371, 20.20581599, 20.52924743, 8.54107722
11.00795167, 6.02702248, 11.31702258, 6.16238590, 11.06119343, 18.79827120, 26.80997949, 9.45383520
12.15216030, 6.66333250, 11.19821414, 4.33877863, 11.79830496, 21.79564177, 25.60517526, 13.58859816
12.95762324, 5.71839138, 10.63367293, 4.12613621, 13.59503586, 24.39569634, 19.16963745, 17.41192120
12.14495780, 5.58121850, 10.46900186, 4.91934955, 14.50000000, 20.54020448, 18.94795503, 17.41479256
11.04196540, 5.71620503, 10.11558204, 5.35490429, 13.18237460, 22.30863062, 19.93113143, 16.06237840
10.05733563, 5.35723809, 8.45872331, 4.72757866, 11.35231254, 23.13763169, 19.55057544, 16.29493786
10.02746229, 5.61248608, 8.72639674, 4.91680791, 11.08715473, 17.15517415, 16.33018677, 14.66117321
9.00971698, 5.33151011, 9.63068014, 5.35023364, 12.30853363, 19.60548393, 16.96982616, 10.98066483
8.72496418, 4.06509532, 7.84538081, 4.59075157, 13.56281682, 24.19762385, 19.07092027, 11.07587468
8.38600024, 3.80460248, 8.59941858, 5.14295635, 12.10991329, 21.30668909, 23.09761892, 11.94675688
8.47496313, 4.44409721, 12.65108691, 6.13595958, 11.54772705, 17.20029070, 24.85658866, 13.05756486
11.26609959, 4.97995984, 11.80466010, 5.04479930, 15.45719897, 15.49112649, 28.27454686, 14.83408238
12.19938523, 5.21775814, 8.33816527, 4.35315977, 15.75277753, 15.04160896, 30.81720299, 14.57995199
11.20825589, 6.75832820, 11.01816682, 5.53398591, 12.29430763, 16.16245650, 29.74852938, 14.68502639
10.01998004, 6.66895794, 11.60172401, 5.50000000, 10.20784012, 16.78243129, 23.64212342, 12.11713663
8.85296560, 5.16720427, 10.48808848, 4.15632049, 10.53684013, 15.84850151, 17.44276354, 9.26147936
9.68116728, 5.40138871, 11.98436481, 4.74078053, 11.37321415, 15.76388277, 19.44672209, 11.76222768
9.15423399, 4.81144469, 10.88117641, 5.37121960, 12.32680007, 14.88119619, 23.56480426, 12.61645751
10.50595069, 4.59619408, 11.69829047, 5.76628130, 13.50647993, 14.68587757, 24.18729005, 13.70218961
10.71330948, 5.00249938, 14.17480159, 6.05185922, 13.24197870, 20.04931420, 27.67715665, 13.97318861
8.84448981, 5.30330086, 14.63215637, 5.21775814, 13.35102992, 24.68450931, 26.89934943, 15.62289986
8.20060973, 5.82237065, 14.88875415, 6.36003145, 14.41266804, 22.01249645, 21.29671336, 16.58387771
8.10863737, 5.88217647, 13.25047169, 6.46335826, 14.32305833, 22.47609842, 21.55980056, 15.94678651
9.70309229, 5.26782688, 10.84896308, 4.38463225, 13.41081653, 22.43490584, 25.58466337, 15.79952531
10.42952540, 4.66100847, 10.36822068, 4.16533312, 12.24948979, 17.83255450, 25.67586415, 13.24009063
10.23840808, 4.43565102, 10.30048543, 3.86975451, 13.47775946, 20.92725496, 19.88089535, 12.21781486
13.27874241, 6.16238590, 11.91427715, 4.09267639, 14.97080492, 22.17938232, 18.01874024, 13.87443693
14.75635456, 6.86658576, 13.53144486, 5.45435606, 13.19564322, 24.07280623, 18.79162047, 13.23536928
12.09958677, 6.69328021, 14.17921013, 6.26298651, 11.37980668, 28.67097836, 22.14328341, 9.74037987
14.20651259, 9.55379506, 15.33460140, 6.77864293, 11.29380361, 35.64687925, 23.46273641, 9.63587048
15.08973161, 9.97872737, 16.32329624, 6.71751442, 11.41380743, 39.35987805, 20.20519735, 11.33137238
12.10784869, 8.66602562, 16.44308365, 6.11759757, 14.06680490, 33.09153970, 19.19830722, 10.36701500
11.55097398, 9.18286448, 18.60980924, 5.71839138, 14.28898177, 28.19485769, 18.88782677, 9.29650472
11.86381052, 9.57470626, 21.26793361, 7.29383301, 13.62626141, 27.53543172, 25.08286268, 14.26621884
12.80624847, 8.37555968, 17.90879672, 8.08238826, 12.61051149, 27.80917115, 26.86866204, 14.94322589
12.31259518, 7.77656737, 15.09470106, 7.50000000, 8.75642621, 25.75315515, 19.83557410, 13.88614417
11.07587468, 7.83262408, 14.13506279, 7.73466224, 10.31867240, 21.29788722, 17.44491330, 15.08061670
12.01561484, 7.01070610, 12.70531385, 7.66159252, 11.28051417, 21.81971586, 17.37311141, 12.80722452
14.43693181, 7.42967025, 14.03299683, 7.73627817, 14.80540442, 21.56791599, 17.84306588, 13.09675532
12.17887515, 8.04829174, 14.00624861, 7.62069551, 16.96466917, 22.40089284, 18.57955866, 13.18427093
7.78941590, 7.68765244, 14.50603323, 7.85015923, 13.38189075, 24.39569634, 23.85686484, 11.12879149
10.94646062, 8.00000000, 14.14125171, 7.59769702, 11.26055061, 20.90574084, 23.19590481, 14.54991409
11.93524193, 7.73789377, 12.24234455, 6.14410286, 14.07746426, 19.00197358, 15.17810924, 16.44992401
9.40079784, 6.83739717, 11.28273017, 6.07865117, 13.55267501, 20.51401960, 19.30025907, 13.94094688
9.53152664, 7.41114026, 13.44525939, 6.42261629, 12.48599215, 23.85686484, 24.43869882, 12.21167474
13.15104559, 8.16088231, 11.90588090, 5.39907399, 12.82283120, 25.11075467, 26.99629604, 13.01729619
12.46896146, 7.43807771, 8.69913789, 4.63950428, 10.75523129, 19.45314885, 25.94995183, 14.48965148
9.19782583, 7.70064932, 13.77497731, 6.54217089, 11.63292740, 14.59537598, 20.55602102, 15.49516053
11.57475702, 8.84166274, 15.22333735, 7.41451280, 14.45164351, 15.76229679, 18.31256399, 16.70104787
11.12205017, 7.46156820, 11.63292740, 6.68206555, 15.04742503, 24.81179155, 22.39084634, 14.70459112
11.88170863, 5.63027530, 10.78076992, 5.73803102, 12.93251716, 22.99402096, 21.80653572, 13.98481319
14.04279175, 6.38748777, 12.04263260, 6.07659444, 11.00568035, 15.00416609, 19.56080264, 15.58284313
12.51499101, 7.59605161, 15.74325252, 7.01783442, 12.00312459, 18.91163663, 20.41078146, 14.21794641
12.35920709, 7.53491871, 15.63569634, 7.32461603, 13.20511265, 18.40244549, 24.65917679, 12.37335848
12.00833044, 7.78781099, 12.97690256, 6.69514750, 12.16552506, 13.69123807, 26.48018127, 14.21970464
10.22130129, 6.84105255, 12.51199425, 5.28677596, 10.79120012, 12.11610498, 21.21320344, 14.60564959
10.50476083, 5.79655070, 10.93160555, 4.95479566, 9.60989074, 11.73562951, 20.42363827, 11.21048616
12.37739876, 6.47688197, 12.03640312, 5.24404424, 14.18978506, 13.48054153, 22.93523490, 12.35313725
12.19631092, 7.52163546, 12.52896644, 5.96028523, 14.24692949, 16.32176461, 27.55176945, 13.64184738
9.78902447, 7.27839268, 12.05093357, 6.37965516, 9.75704873, 14.73770674, 25.66758656, 13.66016105
10.23596600, 6.27096484, 12.79355306, 5.99374674, 9.80306075, 15.23975065, 19.29702050, 13.16434579
10.50595069, 6.20080640, 13.29473580, 5.93295879, 13.99642812, 16.87305544, 19.18006778, 12.22906374
8.14861951, 5.90550591, 13.29379555, 5.86301970, 14.75550745, 13.72315561, 24.19969008, 12.27090054
7.37563557, 5.74020906, 13.90413608, 4.97242396, 14.39183796, 16.43624045, 26.38418087, 11.37321415
11.25166654, 8.27042925, 17.50428519, 6.09507998, 15.58605146, 17.39971264, 23.92279248, 13.05373510
11.24944443, 8.07774721, 17.18356773, 6.40897808, 13.82570071, 13.75681649, 22.42933347, 12.41873585
7.67463354, 6.34428877, 15.42886904, 5.07198186, 12.91801068, 15.18057970, 22.81446909, 11.96870920
7.72334125, 7.91675439, 16.65983193, 5.90762220, 13.20037878, 15.53383404, 23.50585034, 14.06769349
8.13172798, 7.09048658, 14.24517462, 5.87367006, 16.36459593, 13.90593399, 18.47768925, 12.22088377
7.35357056, 7.54155156, 12.82088140, 4.90662817, 15.23728979, 12.89767421, 18.59704278, 9.24526906
7.50333259, 9.90706818, 16.59743956, 6.50768776, 12.04367054, 15.44506394, 22.11504013, 12.11919964
8.08238826, 8.75499857, 17.62739345, 7.73627817, 11.98957881, 16.64556998, 22.57376796, 16.00546782
6.29285309, 7.09929574, 15.44587324, 6.96778300, 11.19374826, 12.05715555, 21.35532720, 14.10319113
6.23698645, 9.63716763, 19.77245559, 8.84166274, 10.13410085, 9.68633057, 22.61249655, 12.39758041
7.78781099, 9.02773504, 20.36725313, 8.00468613, 9.19510739, 16.49848478, 22.73653448, 12.63328936
7.69740216, 7.10633520, 14.86018169, 3.96862697, 11.77815775, 17.30317890, 20.78160244, 12.42074877
6.74536878, 7.70389512, 13.53790974, 5.47950728, 12.52397700, 13.15579720, 23.47711652, 11.26609959
6.61626783, 7.23878443, 14.02943335, 6.87022561, 11.86907747, 12.01041215, 21.98067333, 11.46625484
7.26808090, 6.87568178, 14.47584194, 7.19200945, 11.39517442, 14.52756002, 19.06174179, 13.21835845
8.47643793, 8.52789540, 15.40860149, 7.00000000, 9.65401471, 13.88254299, 20.07236907, 11.27940601
8.08702665, 8.27042925, 14.89462990, 6.32850693, 10.52259474, 16.04135281, 21.68351909, 9.50263121
6.29682460, 5.79439384, 10.53802638, 4.94974747, 13.21835845, 17.12819313, 22.25252795, 9.38349615
5.46808925, 5.55652769, 7.16414684, 4.76707457, 13.01153335, 15.97419795, 19.12132318, 8.33816527
7.30924073, 6.69701426, 10.12546295, 5.31036722, 12.22190656, 18.73032301, 18.92485139, 9.12140340
8.22800097, 6.69888050, 10.87313202, 5.00749438, 11.17586686, 18.08245006, 20.94576329, 12.63032066
6.40897808, 6.14817046, 12.14804511, 5.57225269, 12.08614910, 15.91225942, 23.43608329, 11.22274476
6.60492241, 6.72309453, 11.89012195, 5.60133913, 14.56021978, 16.83523092, 25.04346222, 11.27940601
9.28708781, 6.37377439, 9.61119139, 4.96487663, 12.90736224, 17.80449381, 18.58494014, 13.18237460
10.16980826, 7.29211903, 8.95404936, 4.79322438, 10.87198234, 17.59758506, 15.74722198, 12.45190748
9.53414915, 7.52329715, 7.99687439, 3.87620949, 13.23064624, 16.40274367, 21.47731361, 15.19210321
7.61248974, 5.90127105, 10.16980826, 4.68774999, 14.04457191, 15.19539404, 21.50988145, 14.11647973
6.62382065, 5.94978991, 10.49761878, 4.89131884, 11.14674840, 14.53444185, 18.21812285, 15.52175892
7.75403121, 6.16035713, 7.85493475, 3.87298335, 8.18077013, 17.85007003, 20.83566654, 17.64723774
7.49833315, 5.14781507, 9.75961065, 3.73162163, 8.88397434, 20.36909424, 22.24241444, 15.83350877
7.75403121, 5.45664732, 11.23721496, 4.23379263, 10.97383251, 18.35074930, 20.61370903, 18.14662503
7.62397534, 5.82237065, 12.40866633, 5.50227226, 12.92284798, 18.91626284, 21.55226206, 16.30107358
7.74758027, 5.88430115, 11.89747872, 5.76194412, 11.90903019, 16.38825799, 23.15923142, 10.74360275
7.43303437, 6.37573525, 10.38267788, 5.52268051, 11.45207405, 13.52497689, 23.41153562, 9.85900604
7.42630460, 6.39726504, 9.91211380, 5.12835256, 12.33592315, 13.99821417, 22.33606948, 11.07023035
7.63708059, 5.93295879, 7.96711993, 3.78813938, 13.00000000, 13.12345229, 19.83620427, 11.08038808
7.91675439, 5.34789678, 6.73238442, 3.25576412, 13.26178721, 12.75931033, 21.86835613, 11.97497390
8.79062000, 4.98246927, 7.99531113, 3.63318042, 14.88287607, 15.66923738, 24.57488555, 13.57663434
9.45251289, 4.81663783, 11.18257573, 4.94722144, 17.35079249, 18.54791093, 24.79364838, 14.28898177
10.78308861, 5.56327242, 11.47279391, 5.27730992, 14.54561790, 16.36230424, 22.09015618, 16.97424520
9.78135982, 6.00416522, 10.12052370, 4.76969601, 10.13533423, 15.02165104, 18.02012764, 16.92409525
7.58122681, 6.50384502, 10.09331462, 4.42436436, 11.93314711, 17.90251379, 22.74752734, 14.55936125
10.07223908, 6.39335593, 9.99624930, 3.85356977, 15.61249500, 19.05846269, 23.70390263, 15.85717503
10.60188662, 5.15994186, 9.52234215, 4.28660705, 16.74066904, 18.78696357, 21.23676058, 15.50725637
9.59687449, 5.22733202, 7.88194139, 3.78813938, 15.42967919, 18.34461774, 25.94850670, 13.76589990
10.94074952, 5.10636857, 7.84538081, 3.57071421, 14.47584194, 14.12621676, 26.42773165, 13.62901317
10.82935825, 5.06951674, 9.52234215, 4.45533388, 13.39962686, 10.82127534, 21.89920090, 10.85587399
9.87420883, 5.15751878, 8.74785688, 4.31566913, 12.38547536, 14.49913791, 25.12070859, 9.25472852
8.72353140, 4.87596144, 8.17159715, 4.08044115, 12.72399308, 14.92062331, 28.66225741, 10.22252415
8.26438140, 5.06705042, 8.38749069, 3.82099463, 15.16410235, 13.31164903, 23.45101277, 9.47364766
7.25775447, 4.69574275, 8.00936951, 3.54612465, 14.37358689, 17.17774723, 25.36976547, 9.61249187
6.79889697, 5.57225269, 9.13372870, 3.42782730, 12.88409873, 18.12663786, 28.54338803, 10.17349497
9.43398113, 6.18465844, 9.17060521, 4.01870626, 12.83939251, 14.58338095, 22.84513077, 9.77368917
10.40192290, 5.52720544, 7.17112265, 4.67974358, 13.34634782, 14.72582765, 20.76234572, 8.51028789
11.16131713, 7.26980055, 9.52759151, 5.06458290, 14.68417516, 14.91978552, 21.76522456, 11.13552873
11.47497277, 7.62069551, 12.78377878, 5.23688839, 13.33322917, 14.91475779, 19.42035015, 12.18708333
8.79914769, 5.70964097, 11.38419958, 4.44690904, 12.59265659, 17.02498164, 18.63061996, 10.27983463
7.60427511, 5.64358042, 8.98053451, 4.34453680, 12.54491929, 16.89378584, 17.50285691, 10.67122299
8.27194052, 6.12372436, 8.78066057, 4.78016736, 12.73970172, 14.90553588, 16.01639785, 12.78768939
8.37257428, 5.35023364, 8.18993284, 4.32434966, 14.69353599, 17.38677658, 18.23321146, 14.08456602
9.38216393, 5.83095189, 8.62988992, 3.94017766, 13.72861974, 16.42939439, 19.54673886, 13.39776101
8.69626357, 6.03738354, 9.20597632, 4.29243521, 10.02122747, 12.71121552, 20.36663939, 11.44989083
7.44479684, 4.57984716, 7.93725393, 3.96862697, 10.36339713, 13.91132632, 18.88451747, 11.56935608
8.14094589, 4.80104155, 6.67645115, 3.77822710, 9.88559558, 14.59965753, 19.03023909, 11.19709784
8.40981569, 5.62138773, 8.07000620, 4.30406784, 8.53814968, 17.59971591, 21.92373143, 13.02785477
9.62418828, 5.88854821, 8.93168517, 3.97492138, 10.58890929, 18.90965362, 23.62096526, 15.78606981
9.11043358, 5.38052042, 7.82783495, 3.15832234, 10.97497153, 16.44232344, 26.11895863, 13.36132478
7.01070610, 4.91426495, 8.55423872, 3.53906767, 10.09207610, 12.96823041, 23.14789407, 14.15185500
7.28354309, 5.07690851, 9.92093746, 4.06816912, 13.87173385, 15.31992167, 14.74533825, 12.60654592
6.29682460, 4.81144469, 10.02995513, 4.16233108, 15.06568950, 16.81294144, 15.82956095, 9.33675533
5.36423340, 4.30406784, 9.90959131, 4.22492603, 11.08151614, 13.36226029, 17.88854382, 11.88907061
6.77310859, 4.15030119, 8.20365772, 3.87298335, 7.87559522, 11.36881700, 21.36410541, 10.48570455