5.98748695, 8.76641318, 14.70374102, 50.39791662, 72.73015193, 40.39275925, 20.75090359, 8.57029754
5.32447180, 8.21279490, 15.82403236, 44.51656995, 69.34947729, 42.44849821, 24.16195356, 9.82089609
7.15017482, 10.13286731, 17.77357589, 48.71319123, 63.99238236, 45.75751304, 25.30661969, 12.45592229
8.10092587, 10.74360275, 16.07326974, 46.52096302, 61.95179578, 46.34382375, 28.67272223, 12.98941877
7.79743548, 11.65439831, 17.54066703, 44.12000680, 66.73005320, 46.83775187, 29.77037118, 11.84799561
12.73283158, 10.38508546, 16.64181480, 41.36091150, 73.70159428, 49.26738272, 22.70902904, 14.75635456
12.22906374, 6.25899353, 10.56053976, 29.55757094, 68.70662268, 44.05309297, 21.95279026, 14.59708875
6.82092369, 8.47496313, 13.38842784, 32.76278376, 71.22324059, 40.54102860, 22.33439052, 10.49880946
8.05294977, 10.64189833, 16.91005618, 37.88898257, 67.55312724, 43.49655159, 22.84513077, 11.68546105
7.55976190, 9.44060379, 14.57137605, 32.50230761, 72.87283444, 44.73952391, 25.54016445, 11.65547082
5.79870675, 7.24568837, 9.74551179, 24.01145560, 73.37761920, 39.39289276, 26.60310132, 9.79668311
5.01248441, 6.49037749, 9.12277370, 25.34363825, 58.52243160, 38.71046370, 23.83694611, 8.52496334
5.31742419, 7.32461603, 10.90298124, 28.50131576, 58.34402283, 45.87155982, 19.68819443, 7.96241169
5.28677596, 7.40945342, 11.47170432, 27.83702570, 64.16287868, 38.86161345, 19.18006778, 7.76530746
5.15024271, 6.42066975, 9.25202680, 21.34010309, 64.09933697, 33.23665146, 17.83115251, 10.12916581
6.44592895, 8.01093003, 11.73030264, 26.69035406, 63.64177087, 43.58038550, 18.67551873, 11.01589760
6.55553202, 8.83600589, 12.89767421, 32.27808854, 70.86730558, 39.82179052, 19.41713161, 9.01249133
5.31507291, 7.13091859, 10.06603199, 27.12839840, 67.63394118, 33.55666849, 19.47241639, 8.07155499
4.43565102, 5.68550789, 8.60232527, 22.23004723, 57.61944116, 31.44996025, 16.75634208, 6.24899992
4.02802681, 5.20816666, 7.34676800, 17.53211339, 57.79057017, 27.70694859, 14.05880507, 5.23927476
3.97806486, 4.78539445, 7.07990113, 19.08402473, 51.33200756, 31.48888693, 17.77990439, 5.81592641
4.45813863, 5.69649015, 8.20060973, 21.63735196, 50.48539393, 33.65895126, 22.76510488, 6.39531078
5.25832673, 6.45755372, 8.97078592, 25.47596907, 63.75774463, 41.42372509, 22.90960497, 7.52828002
4.88108594, 5.63249501, 7.84538081, 24.97248486, 64.83266923, 38.94547471, 17.21046193, 6.80441033
4.26028168, 5.25357021, 7.23705741, 18.82020191, 59.05421238, 34.61105315, 16.42863354, 5.96657356
4.02802681, 4.49165894, 6.63136487, 16.50984555, 58.71988590, 33.33541660, 17.21336690, 5.67890835
3.39484904, 3.72155881, 5.32212364, 13.54713992, 57.07254156, 29.66057990, 18.89907405, 4.41304883
3.80460248, 5.45435606, 7.30239687, 16.55823058, 60.80481066, 35.57210986, 23.69968354, 5.20816666
4.91426495, 7.31778655, 10.12546295, 22.33830790, 66.08328079, 32.37012512, 23.29109272, 7.04272674
4.79843725, 6.30674242, 9.23309266, 20.83026644, 66.29064791, 31.15084269, 22.47943505, 7.08166647
5.10392006, 5.90127105, 8.73927915, 20.15750481, 69.20007225, 35.49225268, 22.52887037, 7.27151979
5.19615242, 6.50768776, 9.42602780, 24.57081602, 77.20055052, 40.20043532, 19.35652345, 7.55976190
5.46580278, 7.11161023, 10.04241007, 30.53154107, 69.51438700, 47.48420790, 16.54085850, 7.72981242
5.44288526, 7.69252884, 10.91100362, 33.07529289, 62.31091397, 45.04747496, 15.98671323, 7.67951821
6.14410286, 8.71206061, 13.22119510, 35.96804137, 67.84670220, 39.81268642, 19.66977377, 8.15322022
8.56883889, 11.19039767, 16.74888056, 43.24869940, 69.20350425, 37.93316491, 20.19096333, 10.55935604
8.38749069, 11.78346299, 18.30846799, 47.22816956, 66.40801909, 37.81996827, 21.37404969, 10.85357084
6.84287951, 10.54869660, 16.74141571, 42.25961429, 65.67286350, 45.75478117, 25.99374925, 10.22007828
5.66789202, 7.99061950, 12.15113163, 29.35898500, 65.92457812, 41.70881202, 20.97021698, 8.57467201
4.48887514, 5.97913037, 9.04709898, 23.54039082, 55.29669972, 28.09403851, 13.52867325, 6.03738354
3.94334883, 5.19855749, 7.62069551, 21.04637736, 51.90640616, 26.34435423, 14.25745419, 5.49090157
4.02492236, 5.02493781, 7.58946638, 21.23558334, 51.21645243, 27.29010810, 13.65100729, 4.99249437
3.43511281, 4.53872229, 7.24568837, 22.20923231, 54.58136129, 25.85875094, 11.44006119, 3.86975451
3.09030743, 4.47493017, 7.33143915, 20.29655143, 53.96132875, 28.76412696, 11.24611044, 3.93382765
3.96547601, 5.23211238, 8.13941030, 19.71230580, 45.93337567, 34.21987726, 13.29285522, 5.33619715
3.65718471, 4.39317653, 6.47108955, 15.69792980, 57.80138407, 33.22800024, 11.62002582, 4.87339717
3.10241841, 3.58468967, 4.98246927, 12.81600562, 60.36576016, 28.78932094, 11.19039767, 4.12613621
3.21714159, 3.91152144, 4.97995984, 12.26274847, 50.93697086, 28.66443790, 14.43173586, 4.69574275
3.51425668, 4.21307489, 5.55202666, 15.33134045, 51.19472629, 31.36199930, 17.48713813, 4.65564174
3.43874977, 4.08044115, 5.97076210, 15.63329780, 46.46504062, 35.10626725, 17.21844941, 4.50832563
2.86356421, 3.48926926, 5.37587202, 15.00166657, 45.04386751, 38.40930877, 16.37528626, 4.22196637
2.79284801, 3.60208273, 4.92188988, 14.30384564, 56.61448578, 39.39701765, 14.24517462, 3.85681216
2.89395923, 3.57421320, 4.90407993, 12.00937134, 51.25987710, 35.15501387, 13.64734406, 4.25440948
2.90688837, 3.43147199, 5.29622507, 15.02830662, 46.52123171, 27.53633963, 15.87765726, 4.41588043
3.15832234, 4.14427316, 6.23297682, 19.50256393, 56.43403229, 31.95895806, 17.76231967, 4.63950428
4.00624512, 4.74341649, 6.77495387, 21.45693361, 61.00778639, 36.90697766, 17.28438602, 5.73585216
4.10791918, 4.83993802, 7.17460800, 20.18353289, 61.45770904, 37.74619186, 14.54561790, 5.58793343
3.70135110, 4.72493386, 7.11863751, 19.45700388, 64.15995636, 36.25120688, 14.40052082, 10.90183471
3.90832445, 4.97995984, 6.97674709, 19.56719193, 69.17315231, 32.52383741, 12.68857754, 11.62432794
4.41021541, 5.45206383, 7.50999334, 23.14789407, 57.40753435, 27.97320146, 11.79300640, 7.12390342
4.10791918, 4.98246927, 6.74351540, 23.37947818, 54.49908256, 24.52804517, 10.80509139, 6.10122938
3.33916157, 4.49165894, 6.06630036, 17.60255663, 57.02039109, 27.33861738, 9.40877250, 4.63411264
3.21714159, 4.43283205, 6.07042008, 14.96328841, 44.26708710, 24.62417511, 8.95963169, 5.03984127
3.44238290, 4.31566913, 5.42448154, 13.43316791, 49.61526983, 25.51862065, 9.48287931, 6.80624713
3.48568501, 4.27200187, 5.36423340, 15.18222645, 58.19879724, 29.28352779, 9.95113059, 6.54980916
3.56370594, 5.09165985, 7.10105626, 22.52554106, 51.72668557, 26.94717054, 8.83742044, 5.16962281
4.54697702, 6.19677335, 8.36660027, 24.91636009, 55.69649899, 27.49045289, 9.43398113, 5.83952053
5.02742479, 6.50576667, 9.03742220, 23.78444870, 57.73625378, 26.70018727, 12.65997630, 6.78232998
4.18927201, 5.44518136, 8.01093003, 22.43434866, 56.98267280, 26.30589288, 12.61447581, 5.56551884
2.83725219, 3.52136337, 5.25832673, 18.49459380, 51.59045454, 23.52286122, 8.82043083, 3.32791226
3.13448560, 3.55668385, 5.20576603, 16.41797795, 43.29867204, 24.89427645, 8.15935046, 3.58817502
3.71146871, 4.51663592, 6.36396103, 15.98202115, 48.12587662, 27.49590879, 9.21547611, 4.23969339
3.67763511, 4.69308001, 6.34428877, 17.07263893, 42.31223227, 25.68073208, 16.68757022, 5.06458290
3.14245127, 3.68103246, 4.94722144, 17.28221629, 45.64099035, 34.85577427, 18.98552080, 4.73286383
2.59807621, 2.92403830, 4.38178046, 15.34763825, 51.55773463, 34.63127200, 15.25204904, 4.30406784
2.87662997, 3.46049129, 5.12347538, 14.85597523, 54.88396852, 32.09556044, 15.58444738, 5.16236380
2.71108834, 3.58817502, 5.01497757, 14.23903087, 59.06373676, 36.55167575, 15.49516053, 4.70372193
2.70185122, 3.32791226, 4.79061583, 15.61809848, 60.09242881, 37.39485259, 12.19836055, 4.06201920
3.12649964, 3.62973828, 5.34555890, 16.24576868, 58.16248791, 33.39011830, 12.78377878, 4.58257569
2.85919569, 3.39852909, 4.92696661, 12.44588285, 58.31873627, 30.09111164, 13.81846591, 4.24558594
3.10644491, 3.27108545, 4.37607130, 11.09504394, 51.86159465, 31.60775221, 15.71941475, 4.57165178
3.25960120, 3.22102468, 4.37607130, 12.35212532, 50.48712707, 30.83828789, 18.51890926, 5.97913037
3.04548847, 3.54612465, 4.89642727, 14.17480159, 54.22822143, 29.02154372, 16.91818548, 5.92874354
3.17017350, 4.28660705, 5.90973773, 14.46115486, 50.49579190, 28.65615117, 14.15097170, 4.68241391
2.95803989, 3.81772183, 5.41294744, 12.20860352, 54.68294981, 32.06204922, 14.26709501, 4.07737661
2.53475837, 3.06186218, 4.26321475, 12.32680007, 61.81342896, 35.74003358, 13.34072712, 3.96547601
3.33916157, 4.17133072, 5.84593876, 16.32176461, 62.96229030, 35.41115643, 12.19528597, 4.85025773
4.15331193, 5.85234996, 8.00780869, 23.71286571, 60.98073466, 35.15928042, 13.60790212, 6.43039657
4.01559460, 5.96866819, 7.91675439, 24.55962133, 62.26716631, 34.38313540, 14.57823720, 6.18263698
4.42718872, 5.86515132, 7.69090372, 22.34949664, 63.47361657, 29.80268444, 17.36591489, 5.81377674
5.10392006, 6.58596994, 9.21954446, 28.50219290, 66.19743197, 33.39797898, 17.76865217, 6.73795221
5.40370243, 7.34676800, 11.09729697, 31.82923185, 63.94040194, 34.51630050, 14.21091130, 6.14003257
5.55652769, 7.81184997, 11.12991464, 27.41532418, 56.46459067, 28.25464564, 11.79406630, 6.71192968
5.94348383, 8.05760510, 10.79930553, 27.50908941, 61.74625495, 24.70880410, 13.13868334, 8.19908531
6.39531078, 8.10092587, 10.86623210, 26.70486847, 65.07245961, 33.08020556, 25.11921575, 9.84631911
6.02702248, 7.86765531, 11.08377192, 30.36939249, 52.08910635, 40.32059027, 31.95465537, 9.65271982
5.22494019, 7.16240183, 11.08828210, 31.96677963, 52.91290013, 40.97834794, 24.95095189, 8.02963262
5.29622507, 7.33143915, 11.00908716, 24.56979853, 64.88162298, 37.63309714, 21.85634919, 8.24924239
5.48862460, 7.38241153, 10.48093507, 23.96247066, 76.83700280, 39.95278463, 25.56755757, 8.42318230
4.95227221, 6.50000000, 9.07193474, 27.71732310, 82.15884006, 38.47466699, 24.87569095, 8.29005428
5.49090157, 7.07460246, 10.16612020, 28.69799645, 71.04980647, 27.47316873, 20.73282422, 10.08835963
5.77927331, 7.78941590, 11.29933626, 29.22028405, 67.65870232, 29.73802280, 16.97939928, 10.77729094
5.11859356, 7.49333037, 10.95901455, 27.42717630, 71.04224096, 37.09649579, 21.00297598, 8.91627725
6.23698645, 8.63568179, 12.67181913, 31.22098653, 59.56886771, 43.02876945, 25.26855754, 9.11317727
9.40079784, 12.71809734, 18.47971861, 40.84972460, 56.55594575, 46.47687597, 28.83747562, 12.78280095
9.86661036, 13.07287268, 18.99407802, 40.59248699, 66.55261077, 38.54996757, 24.95596121, 13.35851788
7.70389512, 10.10321731, 14.52583905, 35.69383700, 71.66676357, 30.77336511, 19.72498416, 10.26401481
6.18263698, 8.95125689, 14.09077713, 34.68356960, 69.08563527, 33.94223033, 19.45122104, 8.83034541
5.59016994, 8.34415963, 13.29473580, 34.97820750, 65.56447209, 42.03926736, 17.67554808, 8.82468130
4.98998998, 6.76202632, 9.69922677, 28.32092866, 66.39352378, 40.71424812, 17.51570724, 7.30924073
4.84252001, 5.71401785, 8.09938269, 21.30610241, 60.48718873, 32.15820269, 16.29800601, 6.83008053
5.07444578, 6.09507998, 8.91207047, 24.76489451, 54.95839335, 35.87164618, 14.15450458, 6.95701085
4.52216762, 6.29682460, 9.60989074, 24.83193508, 55.93791201, 35.51302578, 14.23551896, 5.74020906
3.82099463, 5.59910707, 8.29608341, 21.42720234, 53.74593008, 26.98101184, 13.17193987, 5.02742479
3.31285375, 4.34165867, 6.24899992, 18.24897257, 46.71991010, 22.14892774, 13.78767566, 4.39602093
3.65376518, 4.79843725, 7.25430906, 20.10534755, 58.79987245, 36.84596314, 18.06792739, 4.95227221
3.48209707, 4.92950302, 7.46324326, 22.11617055, 59.48697336, 41.59837737, 16.34854734, 4.63680925
3.43147199, 4.59347363, 6.27295784, 19.45636143, 56.49336244, 32.99962121, 14.30034965, 3.82099463
3.43147199, 4.26321475, 5.65243310, 17.87106600, 62.60870546, 30.51761786, 12.62636131, 3.89551024
3.22102468, 3.76497012, 6.03945362, 17.41766345, 54.64636310, 27.51090693, 9.20054346, 5.06211418
3.03726851, 4.02181551, 6.51728471, 17.33637794, 52.27021140, 22.06411113, 11.59741350, 5.07690851
2.92831009, 3.84382622, 5.38980519, 15.17728566, 49.23946588, 25.58417480, 16.03745616, 4.20713679
3.31285375, 3.72491611, 5.59464029, 13.88434370, 47.11767184, 31.46704625, 16.15007740, 4.55521679
3.29393382, 4.19225476, 7.21110255, 19.18071949, 56.18451744, 29.87097253, 12.57974563, 4.59075157
2.79732015, 3.89871774, 6.79889697, 20.24166495, 54.90081967, 31.54599816, 14.00446357, 4.17432629
2.82400425, 3.55316760, 5.97703940, 15.94913791, 42.79223060, 36.16213489, 17.75739283, 4.64219776
3.38008876, 4.51663592, 7.00892288, 16.37375949, 42.00982028, 30.90671448, 17.76231967, 5.94978991
3.81444622, 5.37587202, 7.95141497, 20.80384580, 55.50472953, 22.14892774, 14.68928181, 6.53834842
3.27108545, 4.60705980, 7.08343137, 19.86579976, 60.12466216, 24.39825813, 11.00340856, 5.22015325
2.52982213, 3.46049129, 5.44288526, 15.50967440, 52.38702129, 26.25928407, 9.81198247, 4.28952212
3.09030743, 4.03112887, 5.76194412, 16.27421273, 42.56964881, 28.65876829, 11.28051417, 5.59240556
3.70135110, 4.26614580, 6.00208297, 16.68757022, 42.50911667, 29.43679670, 13.34728437, 6.19475585
3.48568501, 4.12613621, 6.05392435, 16.51741505, 53.19139968, 30.62596937, 13.02017665, 5.15994186
2.80178515, 3.72155881, 5.24166004, 15.04576352, 57.67148342, 27.98392396, 8.36809417, 4.20119031
2.95381110, 3.66742416, 4.83735465, 14.50517149, 55.88515008, 20.08917619, 7.75564311, 4.48608961
4.06509532, 5.23211238, 6.76202632, 19.33907961, 57.72044698, 23.44888057, 11.26720906, 5.66789202
4.15932687, 5.24404424, 6.79153885, 19.96246478, 60.05872127, 22.31199229, 10.70163539, 5.91185250
3.08220700, 4.13521463, 5.79439384, 18.23115465, 65.55455743, 19.43386220, 10.49523701, 4.38178046
3.15436206, 4.11703777, 6.08892437, 18.11767093, 64.68809782, 21.48080539, 11.07700320, 4.00936404
3.29772649, 4.00624512, 5.89067059, 15.33297101, 52.48142529, 24.00937317, 8.43504594, 4.46934000
2.92831009, 3.58120092, 4.82700735, 11.76860230, 41.19830094, 24.56979853, 7.48498497, 4.24264069
2.73404462, 3.25576412, 4.45533388, 14.26446634, 46.62590482, 23.25994411, 6.43816744, 3.78813938
2.69722079, 3.20936131, 4.93203812, 15.35903643, 55.20371364, 27.57489801, 6.46529195, 3.27490458
2.47991935, 3.08220700, 4.71433983, 13.49444330, 57.03946003, 26.22784780, 6.29086640, 4.27492690
2.80178515, 3.91152144, 5.50908341, 14.94573518, 68.97861988, 23.36610793, 8.55277733, 7.02495552
2.99583044, 3.98434436, 5.71401785, 16.65833125, 69.90493545, 24.98299422, 9.04295306, 6.45368112
2.82400425, 3.52491135, 5.21296461, 16.90709910, 52.00745139, 23.13222860, 6.84105255, 3.89230009
3.19374388, 3.17411405, 4.53321078, 14.52239650, 43.56718949, 27.09566386, 6.52686755, 5.11370707
2.97069016, 2.60768096, 4.07124060, 12.33896268, 51.05462761, 26.09501868, 10.02870879, 6.65394620
2.69722079, 3.74833296, 5.66568619, 14.29160593, 56.33116367, 29.97790853, 10.88462218, 7.15367039
2.69258240, 4.24558594, 5.88430115, 15.72736469, 53.87439095, 32.58795790, 9.08845421, 6.15020325
4.60434577, 7.75725467, 4.80104155, 13.20416601, 51.39795716, 25.15203769, 8.98192630, 5.89915248
4.95983871, 8.21431677, 4.91680791, 15.12861527, 52.51761609, 20.67667768, 8.39344983, 6.91013748
3.41686991, 4.80104155, 5.37354632, 17.23586377, 55.38117911, 23.38054747, 8.64869932, 6.14613700
2.82400425, 3.53553391, 4.64219776, 16.19876539, 55.62598314, 29.22113961, 8.65014451, 4.33877863
2.26384628, 3.01662063, 4.35315977, 16.19722198, 56.93834385, 29.73928378, 7.92464510, 3.77822710
2.47991935, 3.59861084, 5.31507291, 15.83745560, 50.65644085, 28.51973001, 9.53808157, 4.73814310
3.02902625, 3.92109679, 5.57449549, 17.27353467, 44.21198932, 28.39454173, 11.13889582, 5.39212389
2.70647372, 3.39484904, 4.69308001, 16.76678264, 53.52943116, 24.71032173, 8.50294067, 4.80624594
2.33452351, 2.96647939, 4.21900462, 14.69778895, 55.51283635, 20.55480479, 5.56102509, 4.36176570
3.18198052, 3.60555128, 5.42448154, 14.09787218, 53.64839233, 19.21587885, 8.05294977, 5.00000000
3.52491135, 3.87620949, 5.25119034, 12.69940944, 51.83941551, 18.71630305, 8.77068982, 6.05805249
3.48926926, 3.85681216, 5.06705042, 12.86662349, 46.65592138, 18.69759343, 9.84377976, 6.33245608
3.19374388, 3.79473319, 5.11615090, 13.21741276, 47.42019612, 21.62521676, 10.59481005, 5.40832691
2.77488739, 3.46770818, 5.02742479, 12.19323583, 52.31515077, 23.58018236, 9.07744457, 4.68774999
2.65518361, 3.18198052, 4.94216552, 13.36880698, 52.79133452, 25.03098080, 8.26135582, 4.66636904
2.47991935, 2.96647939, 4.21010689, 13.31728200, 49.19502007, 23.24112734, 8.24317900, 4.29243521
2.59326050, 2.99583044, 4.23969339, 13.22970143, 54.73824075, 19.94492417, 7.59934208, 3.71819849
2.55440795, 3.03726851, 4.76182738, 14.21706721, 55.75257842, 19.41970649, 6.63701740, 3.84057287
2.64102253, 3.00416378, 5.06705042, 13.67570839, 50.73583546, 20.69359804, 11.02270384, 5.45664732
2.71108834, 3.18590646, 4.97242396, 14.27235089, 55.06428062, 20.72438178, 12.06751839, 5.43829017
2.47991935, 3.51069794, 5.15024271, 13.24952829, 55.80949740, 24.84803815, 9.19510739, 4.52769257
2.47991935, 3.20156212, 4.74605099, 11.67582973, 54.58571242, 27.12563363, 13.97318861, 4.10487515
2.63153947, 2.84165445, 4.47213595, 14.64240417, 48.45719761, 29.13116887, 16.35084096, 4.34453680
2.64575131, 2.71569512, 4.11703777, 14.92899863, 41.61430043, 26.33391350, 11.87328935, 4.28660705
2.56904652, 2.95803989, 3.77160443, 15.22415843, 45.36518489, 24.84250390, 10.01498877, 3.50000000
2.67394839, 3.32039154, 4.91680791, 17.50499929, 52.70365262, 27.08412819, 15.86663165, 4.03732585
2.96647939, 3.86975451, 6.22896460, 19.75284790, 58.09173779, 30.78067576, 16.38062880, 5.00999002
3.34290293, 4.54697702, 7.19895826, 20.42241416, 56.43403229, 33.72091339, 13.06043644, 5.37587202
3.30907842, 4.33301281, 7.09753478, 17.70875490, 61.25663229, 26.46932187, 13.41827113, 4.49444101
2.72946881, 3.58817502, 5.72276157, 13.66839420, 58.48824668, 23.93637399, 13.51850583, 4.85540935
2.71569512, 3.69120577, 5.03736042, 13.81575188, 48.93286217, 31.66899114, 15.86032787, 6.19677335
3.33916157, 4.36463057, 5.35256948, 15.65487145, 53.34955482, 31.79661932, 15.56839748, 6.17656863
3.23264598, 4.38463225, 5.47722558, 15.11869703, 58.50299138, 25.85343304, 13.62075622, 5.40601517
2.83284309, 3.73162163, 5.58121850, 20.28361408, 62.04756240, 23.36182784, 14.87195347, 4.24558594
3.35037311, 3.67423461, 5.52041665, 22.12238685, 55.50630595, 31.59351199, 16.79434429, 5.40601517
3.27490458, 3.78153408, 5.33853913, 16.74888056, 47.48420790, 35.75297190, 16.19799370, 5.63249501
2.92831009, 4.30987239, 5.73367247, 14.04101136, 42.41786180, 32.38788354, 12.02809212, 4.12613621
2.76586334, 4.30987239, 4.99249437, 14.39010076, 38.72014979, 34.43109060, 13.54437152, 4.62871472
2.33987179, 3.10644491, 3.61593695, 11.45207405, 49.32747713, 30.21464877, 13.88254299, 4.82700735
2.61725047, 3.30529878, 4.35603030, 11.91847306, 50.59743076, 27.08782014, 10.85817664, 4.76182738
2.52982213, 3.33916157, 4.51940262, 13.86001443, 42.36330960, 25.58564050, 12.25969005, 4.38463225
3.19374388, 3.46770818, 5.34789678, 14.65179170, 44.16899365, 23.21368131, 11.45643924, 4.87596144
3.53199660, 4.04042077, 6.04565960, 15.46205032, 49.56334331, 22.87575135, 9.75064100, 5.14052526
2.76586334, 3.58468967, 5.22494019, 14.43000347, 48.31200679, 22.35676631, 9.58253620, 4.33012702
2.72488532, 3.29393382, 4.44409721, 13.86903025, 51.90279376, 25.74635897, 8.95963169, 4.10791918
2.72946881, 2.96226265, 3.65034245, 13.96155435, 54.32057621, 23.64529552, 9.54332227, 3.85032466
2.84165445, 3.03726851, 3.87620949, 13.51295675, 52.59919201, 22.72388611, 13.55083023, 4.68774999
2.53968502, 2.81513765, 3.86975451, 11.02043556, 48.96759132, 26.62846222, 13.27591805, 4.65564174
1.91702895, 2.26936114, 3.69797242, 9.99749969, 44.67773495, 29.69722209, 8.16700680, 3.25192251
2.06760731, 2.57875939, 4.20713679, 10.78076992, 48.76653566, 33.77202985, 7.51498503, 3.84382622
2.43413229, 2.81513765, 4.33877863, 12.94024729, 56.58643830, 31.28937519, 7.68765244, 5.14781507
2.59326050, 2.83284309, 4.22788363, 16.23191301, 55.22046722, 28.41742423, 7.84059947, 5.25832673
2.70647372, 3.67423461, 4.67974358, 14.86018169, 46.48306143, 27.00972047, 9.32603882, 3.93700394
3.03726851, 4.22788363, 5.88854821, 16.22883237, 50.13057949, 25.85391653, 11.48912529, 5.03239506
2.75227179, 3.63318042, 5.92452530, 18.22635454, 61.55180745, 27.29972527, 11.17474832, 5.20576603
3.02076149, 3.59165700, 5.10147038, 13.83383533, 66.87226630, 26.99814808, 9.86154146, 4.24852916
3.35782668, 3.59861084, 4.53596737, 11.08377192, 61.80351932, 28.53594225, 10.67356548, 6.48266920
2.97069016, 3.36897611, 4.85540935, 16.23037276, 57.19833914, 29.18261469, 11.28051417, 6.54980916
2.62202212, 3.06186218, 4.60163015, 16.11598585, 49.52953664, 26.80065298, 13.73408169, 4.22492603
2.77938842, 2.83725219, 3.97177542, 13.39962686, 47.70429750, 26.62235902, 12.68857754, 3.95916658
2.91118533, 3.30151480, 4.73286383, 16.27498080, 50.32966322, 23.66748825, 7.83741029, 4.47493017
3.02902625, 3.34664011, 4.76969601, 17.37383090, 49.18358466, 21.97498578, 8.02340327, 5.03984127
2.80624304, 2.74772633, 4.25734659, 14.23903087, 54.90127503, 29.83580064, 9.90706818, 5.75977430
2.83284309, 3.53553391, 5.19855749, 13.97944920, 60.41440226, 32.14148410, 9.79923466, 5.37121960
3.15436206, 3.95916658, 5.59910707, 15.46770830, 54.67540581, 30.28283342, 9.41939489, 5.07690851
2.65518361, 3.19374388, 4.62331050, 12.66787275, 45.91813367, 27.96381591, 10.16366076, 5.44518136
2.94957624, 3.33541602, 4.61248306, 11.90693075, 51.95719392, 23.98176391, 9.38349615, 6.03116904
3.56370594, 3.78153408, 5.01248441, 14.57137605, 51.78706402, 22.99510818, 12.32274320, 6.42456224
3.22102468, 3.97177542, 4.43565102, 13.49073756, 50.03523758, 19.74651868, 11.40504274, 5.25594901
2.92403830, 4.04042077, 4.69308001, 10.78192933, 51.05781037, 14.01962910, 6.36985086, 4.81144469
3.34664011, 4.12310563, 5.29386437, 11.55746512, 57.62941957, 18.42416891, 6.53643634, 5.71182983
3.36897611, 3.97492138, 5.30565736, 12.62735127, 55.36718342, 22.59645990, 6.65582452, 5.50454358
2.91976026, 3.36154726, 4.82182538, 13.69306394, 47.32731769, 23.94420598, 7.88194139, 5.34088008
3.09030743, 3.16227766, 4.36463057, 15.37123938, 51.91387098, 25.77983708, 8.44245225, 5.52946652
3.25576412, 3.53199660, 5.21775814, 16.68157666, 52.82778625, 25.86986664, 7.33825592, 5.07198186
2.87662997, 3.35037311, 4.99499750, 13.30037593, 50.63793045, 19.86202407, 6.49422821, 4.48051336
2.55929678, 2.91547595, 3.94968353, 10.64307286, 50.69911242, 15.06071047, 5.81592641, 4.11703777
2.63628527, 3.01247407, 4.42436436, 13.49536958, 53.47990277, 13.16339622, 4.24264069, 4.67172345
2.82842712, 3.00000000, 4.71699057, 15.43777834, 55.88268963, 18.37729577, 4.43001129, 5.75760367
2.81069386, 3.44963766, 4.65295605, 14.57566465, 50.53291007, 20.21385663, 5.96657356, 5.75977430
2.48495473, 3.47850543, 4.54422711, 11.59310140, 44.70262856, 17.03158830, 5.96238207, 4.97493719
2.38746728, 2.80624304, 3.72491611, 9.68891119, 46.08578957, 17.24093965, 4.90917508, 5.26782688
2.93683503, 2.85482048, 3.21325380, 8.65014451, 45.48955924, 16.25192296, 4.58530261, 5.61025846
2.66458252, 2.85043856, 3.28252951, 8.42169817, 52.10926021, 17.68403235, 4.41588043, 4.66368953
2.83284309, 3.24037035, 4.14728827, 9.92471662, 52.09894433, 16.75485004, 6.27495020, 5.21296461
3.42782730, 3.73831513, 5.00249938, 10.23718711, 45.20978876, 24.86714700, 8.71349528, 7.18331400
3.26343377, 3.76828874, 5.32212364, 11.72390720, 44.73197961, 32.15509291, 8.33366666, 7.03384674
3.54964787, 4.47772264, 6.68019461, 13.04319746, 60.08077896, 30.91035425, 7.73789377, 6.74351540
4.17133072, 5.44518136, 7.95141497, 18.64001073, 59.38518334, 29.56645058, 10.43551628, 6.78417276
3.82099463, 4.91680791, 7.20936890, 19.20351530, 48.66441205, 29.58335681, 9.97120855, 5.33385414
3.89551024, 4.82441706, 7.01605302, 17.73837648, 59.50798266, 28.80017361, 10.40312453, 7.48832425
4.69308001, 6.39531078, 9.19374788, 23.33452378, 70.93553411, 27.79973021, 12.51099516, 8.74642784
7.53989390, 10.29563014, 8.79914769, 23.88723508, 73.92732918, 25.45240657, 11.41271221, 7.76208735
7.65506368, 10.12669739, 7.26291952, 23.01521236, 73.96992632, 30.35168859, 11.63722476, 7.43639698
4.38178046, 5.65243310, 7.11863751, 22.47331751, 74.60127345, 31.49761896, 11.29491036, 7.90253124
3.32415403, 3.93700394, 5.78359750, 18.18034653, 77.05306613, 26.84352808, 8.31865374, 6.68767523
3.42052628, 3.59513560, 4.98497743, 15.65646831, 65.86178710, 24.70829820, 7.99374756, 5.33385414
3.36154726, 3.84057287, 5.46122697, 15.41427909, 56.69567885, 20.13020119, 8.75642621, 5.21296461
3.14642654, 4.02181551, 5.75760367, 15.56036632, 56.07071428, 18.18309655, 8.74785688, 4.59347363
3.01662063, 4.36176570, 5.69429539, 14.76566964, 51.35391903, 19.37330638, 7.76691702, 5.31272058
3.75832409, 5.15509457, 7.27495704, 20.20334131, 57.02587132, 22.99402096, 9.50920607, 6.06836057
5.74891294, 6.19071886, 7.90569415, 21.27968515, 53.20479302, 36.07145686, 14.37532608, 8.27496224
5.32447180, 5.44058820, 6.36396103, 16.70104787, 51.61104533, 46.54084228, 18.91956659, 7.83741029
3.75832409, 4.27492690, 5.59240556, 16.97056275, 51.67325227, 40.71609019, 17.99027515, 5.98122061
3.86328875, 4.44128360, 5.82666285, 17.81852968, 57.55584245, 29.44656177, 12.63922466, 5.87154154
3.36897611, 3.85681216, 5.34322000, 16.46587380, 61.46869122, 29.68459196, 10.87313202, 5.27019924
3.13448560, 3.10644491, 4.38463225, 11.95930600, 56.53339721, 29.67827488, 11.86907747, 6.24899992
2.87228132, 3.53906767, 4.92950302, 14.95409643, 49.55981235, 27.22866137, 12.04574614, 6.09918027
2.75680975, 3.60555128, 5.22015325, 15.15420734, 49.81139428, 27.57716447, 9.51052049, 5.13078941
3.42782730, 4.02181551, 5.86088730, 13.06330739, 46.40932018, 26.85330520, 10.68410034, 6.75832820
3.50713558, 4.29243521, 5.97913037, 15.89418133, 45.36904231, 24.82035455, 11.36001761, 7.04627561
2.52982213, 3.38747694, 4.51386752, 14.92983590, 54.72887720, 21.44003265, 7.64852927, 6.71751442
2.36114379, 2.99165506, 4.51109743, 12.93251716, 52.94714345, 20.57061010, 5.97913037, 6.33640276
2.81513765, 3.21714159, 4.82959626, 12.97112177, 51.08032889, 24.03643068, 7.52828002, 5.13322511
2.67394839, 3.30151480, 4.49165894, 12.29329085, 46.58567376, 25.29970356, 10.89610022, 6.54217089
3.58817502, 4.10487515, 6.21288983, 19.41520023, 46.77579502, 24.57285087, 11.28051417, 6.83191042
4.44128360, 5.38980519, 8.52789540, 25.10776772, 60.74969136, 28.38353396, 11.09729697, 6.62193325
3.38008876, 4.46094160, 6.91917625, 18.95718861, 61.58327695, 25.47057125, 9.47232812, 5.80301646
3.15832234, 3.94017766, 5.76411311, 16.22266932, 55.07721852, 20.65490257, 8.74785688, 6.04979338
3.46410162, 4.51386752, 7.18853253, 22.72608633, 65.14483863, 23.26370564, 9.47628619, 9.95991968
2.83725219, 3.56370594, 5.47950728, 19.25681697, 61.03748848, 21.48196918, 7.97809501, 14.07480018
3.53906767, 4.57711700, 6.57076860, 18.30641964, 50.68259070, 23.18242869, 10.06479011, 13.58307771
3.66742416, 4.97493719, 7.25775447, 18.41874046, 62.92674312, 21.65583062, 9.99749969, 8.17006732
3.17017350, 4.44971909, 6.79337913, 20.95650257, 71.49825173, 19.59783151, 10.34287194, 5.33853913
4.22492603, 6.25499800, 9.70180396, 26.83328157, 69.80472763, 28.76543064, 14.26183719, 9.08432716
5.89279221, 8.34116299, 12.32274320, 30.45652639, 64.39681669, 29.91487924, 15.35008143, 11.13216062
6.12984502, 8.52056336, 13.35477443, 38.52661418, 63.96952399, 33.55033532, 16.15626813, 10.52615789
5.24880939, 7.54817859, 12.34605200, 37.29544208, 69.32099249, 34.81199506, 16.21187836, 14.33352713
4.42153819, 6.42066975, 9.21954446, 25.35202162, 59.96082054, 27.84959605, 12.59662653, 13.01441508
3.85681216, 5.25357021, 6.97137002, 19.93301282, 46.63073021, 25.90028957, 10.28712788, 6.54599114
3.50713558, 4.23083916, 6.59545298, 19.19049244, 53.55721240, 25.58124313, 8.38749069, 7.92464510
3.17411405, 3.57421320, 5.87792480, 18.48850995, 54.96749039, 27.84465837, 5.89915248, 7.99843735
3.41320963, 4.22788363, 5.91396652, 20.00874809, 43.27759235, 25.92489151, 6.86112236, 6.74907401
3.31285375, 4.66636904, 6.70447612, 20.24845673, 49.41381386, 27.94771905, 8.21127274, 7.05336799
3.42052628, 4.77755167, 7.19027120, 20.34637560, 62.50599971, 31.43405796, 11.73243368, 10.11805317
3.60901649, 4.38463225, 6.80624713, 18.34938691, 69.54243309, 26.54100601, 12.01353403, 9.74294617
3.81772183, 4.63141447, 7.49666593, 18.71229542, 67.56644877, 22.53053484, 9.66048653, 7.12565786
3.73162163, 4.53872229, 7.11336770, 17.79185207, 49.15765454, 22.88340010, 8.80056816, 7.52329715
3.52136337, 4.02492236, 6.20483682, 15.94600263, 56.45396355, 22.68204135, 7.61741426, 7.48832425
3.52845575, 4.26028168, 6.28291334, 15.72418519, 61.08007040, 29.00517195, 8.64580823, 7.00000000
2.94957624, 3.61593695, 5.21056619, 13.78132795, 59.90868051, 28.65484252, 8.54107722, 5.90550591
3.24807635, 4.18031099, 5.76194412, 15.61809848, 63.31350567, 22.92542257, 8.01716908, 6.06423944
3.37638860, 4.50000000, 6.04152299, 17.24456436, 56.98596318, 25.97595042, 8.29156198, 6.02702248
3.01662063, 3.45687720, 5.35957088, 16.44004258, 51.47256551, 25.53086368, 7.83741029, 6.39726504
2.61247010, 2.75680975, 4.86055552, 14.77497885, 51.77040660, 21.35532720, 6.90651866, 6.50000000
2.97069016, 3.67423461, 5.63693179, 16.13381542, 55.51553837, 27.84735176, 7.86606636, 5.86088730
3.47491007, 4.17133072, 5.95818764, 15.79715164, 62.55257788, 30.55732318, 9.09670270, 6.15629759
3.00832179, 3.75166630, 5.26070338, 16.62678562, 66.62882259, 27.40483534, 8.44393273, 5.32916504
2.73861279, 3.73831513, 5.11126208, 18.94993404, 64.34555152, 24.50204073, 7.20590036, 4.67974358
2.92403830, 4.16233108, 5.55202666, 18.65877810, 64.63919090, 19.81918263, 6.57076860, 4.42718872
3.07001629, 4.21900462, 5.50908341, 16.11443452, 58.43586228, 18.28250530, 6.97674709, 4.77493455
2.80624304, 3.58817502, 4.34741302, 12.38446608, 53.77894569, 19.52370354, 6.27893303, 5.32916504
2.52487623, 3.17017350, 4.47493017, 12.51698846, 47.51552378, 18.80226050, 5.26545345, 5.11126208
2.52487623, 3.00416378, 5.20096145, 15.43777834, 35.35816737, 27.64371538, 5.72276157, 5.66789202
2.60768096, 3.27871926, 4.75920161, 15.20197356, 39.12703669, 27.66541162, 5.09165985, 5.33619715
2.55929678, 3.28252951, 4.23674403, 12.25357091, 44.19247674, 20.10659096, 5.12347538, 4.09572948
2.03715488, 2.57390754, 3.81444622, 11.69829047, 42.37688049, 18.31938864, 5.21056619, 3.70472671
2.03715488, 2.28582589, 3.39484904, 11.70576781, 46.59157649, 16.29033456, 4.81404196, 4.12310563
2.28035085, 2.63153947, 3.47491007, 11.60818677, 48.77883762, 21.50523192, 5.00999002, 5.47950728
2.83284309, 3.22102468, 3.78153408, 13.51665639, 46.12483062, 19.32356075, 6.03324125, 5.35957088
3.06186218, 3.28633535, 4.41304883, 12.83354978, 42.81851235, 18.46956957, 6.96598880, 4.47772264
2.53968502, 2.83284309, 4.62331050, 10.11063796, 46.37725736, 18.10869957, 7.09577339, 4.01248053
2.39269722, 2.93683503, 4.69041576, 10.47735654, 49.39939271, 19.04862200, 7.84538081, 4.68774999
2.42383993, 2.97909382, 4.44971909, 12.92574949, 45.55491192, 21.63041840, 7.39763476, 4.91172068
2.43413229, 2.92831009, 4.41588043, 12.36830627, 48.14483358, 20.58701047, 6.68954408, 5.07690851
2.57875939, 3.64005494, 5.15994186, 13.15959726, 51.82253371, 19.69136867, 6.91194618, 5.15509457
2.75680975, 3.58468967, 4.86569625, 16.15858905, 57.02017187, 17.71510655, 7.67300463, 4.92442890
2.43413229, 2.97489496, 3.86975451, 14.71818603, 54.76152847, 17.63093872, 7.64852927, 4.42153819
2.15638587, 2.81957444, 3.75499667, 13.05852212, 47.96535208, 18.08106745, 6.30079360, 4.11400049
2.13892496, 2.69258240, 3.82753184, 11.90378091, 47.46393368, 18.52700731, 6.12780548, 5.41525623
2.38222585, 3.10241841, 4.58802790, 10.36098451, 42.02499256, 18.96641769, 6.88658115, 5.40832691
2.75227179, 3.18982758, 5.01996016, 11.90483095, 45.49752741, 18.00069443, 6.79889697, 4.67974358
2.58843582, 3.22877686, 5.09411425, 13.84377116, 42.87744162, 17.79395965, 5.67890835, 4.70372193
2.15058132, 3.04959014, 4.44690904, 12.54192968, 39.17907605, 18.34529913, 5.55202666, 5.05717312
2.08566536, 2.46981781, 3.26343377, 10.41273259, 50.47350790, 22.59369381, 5.78791845, 5.28204506
2.46981781, 3.08625987, 4.11400049, 13.38095662, 55.13392785, 26.48159738, 6.76756973, 4.94974747
2.69722079, 3.54612465, 4.16533312, 13.03552837, 55.83726354, 24.56725463, 7.49666593, 6.27893303
2.90258505, 3.31662479, 4.67172345, 12.08718329, 48.30036232, 20.99761891, 7.42630460, 6.95701085
2.80178515, 3.60208273, 5.74238626, 15.74007624, 50.93770705, 19.24772714, 7.16414684, 5.77711000
3.18198052, 4.03422855, 5.66347950, 15.47013251, 56.41475871, 19.16963745, 7.17809167, 5.74238626
3.08220700, 3.49642675, 4.92188988, 14.66032060, 57.71828133, 23.18350707, 7.53160010, 5.30565736
2.89827535, 2.94957624, 4.00624512, 13.52405265, 51.44098560, 26.71282464, 8.18687975, 4.87596144
2.88963666, 3.12649964, 3.91790760, 10.90068805, 40.04996879, 24.17695183, 8.05760510, 4.82441706
2.82400425, 3.59861084, 4.93710441, 12.08097678, 43.03951673, 20.81585934, 7.79422863, 4.85540935
3.06594194, 3.57770876, 4.95731782, 14.68247254, 42.95957402, 22.64287968, 8.70775516, 7.25603197
2.50998008, 2.79732015, 3.80460248, 13.81575188, 46.81933361, 22.24915729, 7.47328576, 7.03384674
2.19089023, 2.50998008, 3.73831513, 10.87772954, 53.66353511, 21.24088040, 5.91819229, 5.18411034
2.48495473, 2.76134025, 4.34741302, 12.05197079, 48.71293463, 20.05180790, 8.61103943, 4.48887514
2.30759615, 2.66458252, 3.84057287, 12.19938523, 42.10403781, 19.94868417, 8.34415963, 3.62629287
1.91049732, 2.70185122, 4.03732585, 12.07787233, 39.65948815, 20.25894864, 5.26307895, 4.51109743
1.93649167, 2.73861279, 4.13219070, 13.92300255, 42.38513891, 17.66918221, 5.20576603, 4.29243521
2.09165007, 2.37697286, 2.69722079, 12.29939023, 43.63857239, 17.11139971, 5.01746948, 3.58468967
2.70647372, 2.98328678, 4.12613621, 13.03552837, 42.43082606, 20.84766174, 5.46808925, 3.84057287
2.74317334, 3.06186218, 4.46654229, 12.47397290, 51.16932675, 20.40710661, 5.25119034, 4.28660705
2.36643191, 2.69258240, 3.18198052, 8.29759001, 50.33015994, 17.94366183, 4.82959626, 3.91471583
2.71108834, 3.27490458, 3.81772183, 11.55422001, 47.76112436, 22.94994553, 8.73927915, 3.70809924
2.57390754, 3.49284984, 4.65295605, 13.09484631, 47.97759894, 23.99635389, 9.29516003, 4.43565102
2.10356840, 2.85043856, 4.00936404, 13.31540461, 47.91711594, 23.95412282, 6.47881162, 4.20713679
2.26384628, 2.56417628, 3.04959014, 13.07860849, 46.87189990, 22.14836337, 5.96028523, 5.37354632
2.34520788, 2.87662997, 3.82753184, 10.90298124, 37.43327397, 18.77764628, 6.24899992, 5.53850160
2.16217483, 2.72488532, 4.16233108, 9.69793793, 30.95117122, 21.11456843, 6.58976479, 4.54422711
2.55440795, 3.23651047, 4.38178046, 10.97041476, 49.05252287, 21.24911763, 6.15832770, 5.16236380
2.64102253, 3.38747694, 4.44409721, 13.14058598, 59.29544671, 20.60582442, 6.78601503, 6.32060124
2.30217289, 3.10241841, 4.30697109, 12.37941840, 59.74466503, 21.23911486, 9.52234215, 6.24699928
2.76134025, 3.43147199, 4.97493719, 12.38850273, 65.57133520, 22.53053484, 9.50789146, 5.51135192
2.65047166, 2.99165506, 4.22492603, 11.60172401, 62.43616740, 23.48882713, 7.17286554, 5.23688839
2.53968502, 2.77938842, 3.65376518, 11.56287162, 50.59668962, 21.75258605, 8.65736681, 4.43283205
3.09434969, 3.99061399, 5.24642736, 17.49428478, 58.11669295, 22.54772716, 10.34045454, 3.97177542
3.41686991, 4.36749356, 6.11146464, 19.62077980, 65.91130404, 33.51305716, 18.26129787, 5.24880939
3.50713558, 3.84057287, 5.89067059, 16.73170643, 61.14409211, 35.50281679, 17.81852968, 6.17049431
3.47491007, 3.93064880, 5.66347950, 16.43700094, 54.56899303, 30.44215827, 11.97393001, 6.94262198
3.30907842, 3.91471583, 4.98246927, 15.43453919, 54.91060918, 26.79645499, 12.09752041, 6.77310859
2.84604989, 3.42782730, 4.35889894, 12.51199425, 52.42113124, 22.00624911, 9.66178037, 5.23688839
2.82842712, 3.72155881, 5.63027530, 15.75753788, 61.55465051, 23.04397969, 8.42318230, 7.02317592
3.02076149, 4.00624512, 6.63324958, 18.01457743, 70.83837237, 28.24314076, 8.20213387, 8.27798285
3.02489669, 4.07430976, 6.26697694, 15.34275073, 63.69065866, 30.75670659, 8.80340843, 6.77679865
3.16227766, 4.28369000, 6.02287307, 14.37358689, 54.25679681, 26.35241924, 8.40684245, 6.10532554
2.79732015, 3.83405790, 5.34088008, 15.16327801, 53.32471284, 24.89779107, 9.09670270, 5.88217647
2.21359436, 2.94108823, 4.03732585, 14.52842042, 54.00370358, 23.18296789, 7.42293742, 5.32681894
2.65047166, 2.96226265, 4.33301281, 14.78089984, 52.86326702, 18.60645049, 7.36376263, 6.90470854
2.87662997, 3.13049517, 4.78800585, 15.61409620, 62.39330894, 20.09726350, 8.72353140, 7.20069441
2.50000000, 3.01662063, 5.05470078, 17.01102584, 54.05529576, 22.05447800, 7.57627877, 5.14052526
2.56417628, 3.01662063, 4.81663783, 15.59166444, 47.54313831, 22.85771205, 7.40101344, 4.52216762
2.81513765, 2.91118533, 4.12916456, 13.56834551, 63.78146282, 24.05150723, 7.59111323, 6.06836057
2.43413229, 2.79284801, 4.11400049, 12.58371964, 61.48780367, 25.57879982, 6.62947962, 6.00000000
2.10356840, 2.64102253, 3.86005181, 9.97997996, 51.29887913, 24.54740312, 5.61248608, 4.20713679
2.30759615, 2.59326050, 3.34290293, 8.83034541, 51.91338941, 26.59135198, 6.33048181, 4.35889894
2.68793601, 3.07408523, 4.14125585, 11.59956896, 49.47979386, 27.87920372, 7.60098678, 5.12835256
2.94108823, 3.37638860, 3.98748041, 12.67872233, 46.36377897, 22.10260166, 7.03206940, 5.09901951
2.61725047, 2.91547595, 3.28633535, 11.03630373, 45.58289153, 27.60796986, 6.07659444, 5.22015325
2.29673682, 2.35584380, 3.62284419, 10.08340220, 47.12934330, 30.93218389, 6.69141241, 5.32447180
2.50998008, 2.60768096, 4.39317653, 15.11290839, 48.20321566, 27.00462923, 9.22361101, 5.13078941
2.64102253, 2.83284309, 4.32145809, 15.81138830, 46.96008944, 24.43869882, 9.29516003, 4.78800585
2.55440795, 2.76134025, 3.50713558, 11.64259421, 53.92286157, 24.12467616, 7.49666593, 4.09572948
2.59807621, 2.97069016, 3.76828874, 12.08097678, 50.68653667, 23.14033275, 7.25775447, 4.18330013
2.40831892, 2.89827535, 3.81116780, 11.97914855, 44.97249159, 20.36602563, 7.29554659, 3.92746738
2.15058132, 2.62678511, 3.89230009, 10.06851528, 46.64841905, 23.28411476, 6.86476511, 2.85919569
2.04328167, 2.43926218, 3.51069794, 10.72613630, 46.53466450, 23.75394704, 6.10327781, 4.11703777
2.09165007, 2.62202212, 2.94108823, 12.27599283, 43.69467931, 19.84880349, 6.54408130, 4.13823634
2.37170825, 3.06594194, 3.85032466, 10.84665847, 36.73009665, 17.36879386, 6.27295784, 4.49165894
2.44948974, 3.21325380, 4.07124060, 9.38216393, 41.43338026, 18.27224671, 5.75543222, 5.00000000
2.22485955, 3.00832179, 4.07737661, 11.24611044, 54.67174773, 23.37520053, 6.27295784, 3.96862697
2.21923410, 2.97489496, 4.23379263, 11.67261753, 53.91822512, 25.54603687, 7.44647568, 4.21307489
2.30759615, 3.06594194, 4.25147033, 12.13672114, 56.97916286, 24.38339599, 8.54254061, 5.32681894
2.17370651, 3.02902625, 4.18628714, 13.25047169, 60.18720794, 20.59915047, 8.63133825, 4.66636904
2.65988722, 3.45687720, 4.65564174, 12.90348790, 47.48499763, 18.57350263, 9.29784921, 5.91396652
2.86792608, 3.77160443, 5.18652099, 14.06324998, 51.92085323, 22.97063343, 8.48086081, 6.50384502
2.50499501, 3.75166630, 4.97493719, 15.68996495, 56.63633992, 20.58336707, 6.89383783, 5.08920426
2.77037904, 3.89230009, 5.31272058, 15.18387302, 59.83832384, 19.94868417, 8.06070717, 5.76194412
3.09434969, 3.74499666, 5.15509457, 13.99553500, 60.60528030, 21.49127730, 7.81664890, 6.01456565
3.15039680, 3.58817502, 4.88876262, 16.03277892, 56.05778269, 21.62984050, 8.29759001, 6.32455532
2.66458252, 3.20546408, 4.52216762, 16.15007740, 54.24020649, 23.70126579, 7.59440584, 5.37121960
2.34520788, 3.35410197, 5.62583327, 16.17328043, 52.27618961, 20.36970790, 6.02287307, 3.85356977
2.72029410, 3.57421320, 5.81592641, 16.72273901, 47.53051651, 22.51443981, 6.54980916, 3.70472671
2.41350368, 2.81513765, 3.67763511, 13.87173385, 50.42692733, 28.59763976, 5.84807661, 4.08044115
2.39791576, 2.85482048, 3.90192260, 12.84912448, 53.58451269, 28.02588090, 7.16589143, 5.24166004
2.42899156, 2.96647939, 4.41871022, 13.33791588, 49.62081217, 25.28092166, 9.03188795, 5.65022123
2.28035085, 2.85482048, 3.92109679, 12.48098554, 42.35357128, 27.51999273, 8.62264461, 6.08276253
2.28035085, 2.78388218, 3.58120092, 11.10742995, 35.92944475, 25.25024752, 7.13617545, 5.08674749
2.06760731, 2.34520788, 3.47491007, 11.58555135, 45.13369030, 19.43707797, 7.80224327, 3.93382765
2.77037904, 3.09838668, 3.84707681, 11.41380743, 53.26114907, 21.24029190, 9.37283308, 4.85025773
3.09434969, 3.49284984, 4.07737661, 11.72497335, 51.59481563, 21.98692793, 9.14877041, 7.41282672
2.95381110, 3.41320963, 4.39886349, 13.59963235, 48.79805324, 19.69454239, 7.63053078, 7.96084166
2.75227179, 3.08625987, 4.44690904, 14.48188524, 44.77610970, 24.11845766, 7.24223722, 6.04772685
2.53475837, 2.69258240, 4.30406784, 13.82660479, 42.44378635, 25.88918693, 7.53325959, 5.57449549
2.85043856, 3.56370594, 5.27730992, 15.13770128, 46.87563333, 20.67788674, 8.01405016, 5.14781507
3.26343377, 4.04351332, 5.91185250, 17.85777142, 51.35124147, 17.40617706, 8.51909620, 4.49444101
3.04959014, 3.55316760, 5.44288526, 16.32176461, 50.04572909, 18.96773576, 8.47938677, 5.14295635
2.45967478, 3.07814879, 4.41304883, 14.09521195, 45.08796957, 21.41202933, 8.09011743, 6.03116904
2.12720474, 3.06594194, 3.99374511, 12.93445012, 43.62052269, 24.67387282, 6.77495387, 6.53643634
2.44438131, 3.72491611, 5.11859356, 13.72588795, 38.12971282, 25.57879982, 6.86840593, 5.46808925
2.71108834, 3.52845575, 4.86569625, 12.77595398, 35.30155804, 25.16048489, 7.58287544, 4.05894075
2.47991935, 2.76586334, 3.64005494, 9.33005895, 46.82974482, 25.66028059, 7.47495819, 4.75657440
2.51992063, 3.20936131, 4.44690904, 10.48570455, 51.09109511, 24.23272581, 7.74758027, 4.96235831
2.47991935, 3.24807635, 4.26907484, 11.22608569, 52.75722699, 23.95099163, 7.50166648, 4.72493386
2.47487373, 2.88097206, 3.70472671, 11.64366781, 55.35024842, 20.03871253, 6.38161422, 4.35315977
2.28035085, 2.22485955, 3.60208273, 11.87644728, 52.84955061, 19.80530232, 4.81663783, 3.68103246
2.21359436, 2.51495527, 3.98748041, 11.51520734, 50.71488933, 22.06354459, 5.35256948, 3.79143772
2.56904652, 3.19765539, 4.74078053, 11.49565135, 56.46193408, 20.99761891, 6.37377439, 4.19225476
2.47487373, 2.81069386, 4.04660351, 11.30707743, 56.12330176, 22.74587875, 8.80482822, 4.42718872
2.92831009, 3.21325380, 4.01248053, 12.56582667, 46.41578395, 20.31932578, 9.31262584, 5.58793343
2.87662997, 3.44238290, 4.30697109, 12.60357092, 48.03228081, 17.85217074, 7.09753478, 5.63914887
2.17370651, 2.87662997, 4.14125585, 11.86486410, 47.61302343, 22.27835272, 6.82092369, 4.57711700
2.20794022, 2.77938842, 4.25734659, 11.82159042, 47.57362715, 22.32991267, 7.78781099, 4.17731971
2.39791576, 2.51992063, 3.88908730, 10.36339713, 48.70959864, 17.78271633, 6.85383105, 4.47493017
2.64102253, 2.69258240, 3.86975451, 10.04365471, 43.38144765, 17.85987122, 6.19071886, 5.16962281
2.28582589, 2.66458252, 3.51425668, 9.44192777, 45.43731946, 20.38810928, 8.02184517, 4.79583152
1.99374020, 2.42383993, 3.04959014, 10.35132842, 51.63864832, 20.73764693, 7.43471587, 4.96739368
2.16217483, 2.76586334, 3.96547601, 12.57477634, 45.93092640, 23.59978813, 6.16238590, 5.05717312
2.21359436, 2.94533530, 4.48608961, 12.75147050, 40.65833248, 24.51785064, 7.63871717, 4.19523539
2.17370651, 2.40831892, 3.85681216, 11.93628921, 43.96561156, 22.14384790, 8.25227241, 3.69459064
2.45967478, 2.16794834, 3.66060104, 11.09053651, 46.18874322, 23.60349550, 8.99166281, 5.00249938
2.52982213, 2.39269722, 3.58817502, 11.17698528, 46.96195269, 22.72223581, 9.04157066, 5.63027530
2.28035085, 2.72946881, 4.30697109, 12.74656817, 45.56588636, 20.59429533, 7.41114026, 4.57711700
2.43926218, 3.09030743, 4.74078053, 14.79188967, 49.18180558, 22.75027472, 5.34322000, 4.16533312
2.17370651, 2.76586334, 3.94968353, 16.10512341, 49.90390766, 20.54872259, 3.57770876, 4.36176570
1.66583312, 2.35053185, 3.69459064, 16.12606586, 45.76761956, 20.79302768, 6.51920241, 4.59347363
2.33452351, 2.58843582, 3.77491722, 12.26682518, 46.82654162, 23.97550834, 7.29554659, 5.16962281
2.38746728, 2.56417628, 3.78153408, 10.12052370, 48.63255083, 25.82731113, 7.96711993, 5.34789678
2.18517734, 2.35053185, 3.70135110, 11.62110150, 45.41723241, 23.61778991, 7.53823587, 4.28660705
2.56904652, 2.94957624, 4.45533388, 10.21518478, 52.09078613, 20.48902145, 5.54301362, 4.18330013
2.88097206, 3.68442669, 5.13078941, 11.17251091, 55.41367160, 21.80825532, 7.74273853, 5.89491306
2.85482048, 3.58120092, 4.36176570, 11.94466408, 43.48620471, 21.50232546, 7.57132749, 5.88217647
2.06760731, 2.56417628, 3.30907842, 11.21048616, 38.76080495, 17.62597515, 5.48178803, 4.10791918
1.96214169, 2.59807621, 3.60555128, 11.21605991, 49.47423572, 15.90833115, 5.25119034, 3.84382622
2.10950231, 2.71108834, 3.35410197, 10.01249220, 52.36721302, 17.62455673, 5.14781507, 4.03112887
1.82345825, 2.25831796, 2.90688837, 9.15969432, 41.77977980, 20.61370903, 5.06951674, 3.59513560
2.15638587, 2.46475151, 3.73496988, 9.52627944, 40.07898452, 24.17022962, 5.87579782, 4.01248053
2.56417628, 3.12649964, 4.85540935, 13.36880698, 41.99880951, 23.81228674, 6.93000722, 4.08962101
2.42899156, 3.46770818, 5.27967802, 16.52573750, 55.26051936, 21.59745355, 6.85383105, 3.40954542
2.99165506, 3.70809924, 5.25119034, 15.79161170, 59.91431382, 22.86700680, 6.78601503, 3.00000000
3.60208273, 4.58257569, 7.15017482, 21.68755403, 57.47738686, 26.56877867, 8.54985380, 3.87298335
3.44963766, 4.86826458, 7.87559522, 22.94395345, 64.33894621, 23.33773768, 8.15015337, 4.31856458
3.30907842, 4.60705980, 6.77310859, 21.42836905, 59.91368792, 17.98819057, 6.73609679, 4.28660705
3.07408523, 4.28369000, 6.16846821, 21.72498562, 56.19341598, 19.03943276, 6.58027355, 3.86005181
2.65518361, 3.65034245, 4.93457192, 15.61089363, 56.22143719, 20.37584354, 6.24899992, 3.18198052
2.86356421, 3.72155881, 4.97242396, 13.88344338, 48.22421591, 25.46664485, 6.54599114, 3.56019662
3.12649964, 4.09878031, 5.93927605, 15.88946192, 44.20887920, 24.63229587, 6.60113627, 3.78483817
3.07814879, 4.17731971, 5.83952053, 16.39435879, 58.21425942, 19.81981332, 6.10532554, 3.58120092
2.87662997, 3.87620949, 5.43599117, 18.58157690, 60.88328999, 22.68755165, 6.44010869, 3.54259792
2.38746728, 3.32039154, 4.98246927, 19.19114379, 52.82873271, 21.89691759, 6.86294397, 3.53906767
2.24165118, 3.23651047, 4.55521679, 15.05074749, 49.41786114, 17.36879386, 6.35019685, 3.23651047
2.51495527, 3.24037035, 4.72493386, 12.88409873, 44.52892318, 16.51741505, 6.45368112, 3.20936131
2.65518361, 3.15039680, 5.13809303, 15.45719897, 47.71241977, 18.22635454, 7.06576252, 3.30907842
2.54460213, 3.42417873, 5.31036722, 15.60288435, 41.98809355, 23.48084326, 6.61626783, 3.29013678
2.77037904, 3.42417873, 4.93457192, 12.52697090, 39.85316800, 24.68299009, 5.44747648, 3.40220517
2.48997992, 2.92403830, 3.81444622, 10.56645636, 47.50052631, 19.55952453, 5.32681894, 3.69797242
2.12720474, 2.93683503, 3.77160443, 11.38419958, 48.03904662, 17.10336224, 5.93927605, 3.83079626
2.69258240, 3.00832179, 3.84707681, 14.68332387, 52.56733777, 20.20457869, 6.26697694, 3.77491722
3.13448560, 3.21714159, 4.02181551, 17.59474353, 48.93669380, 19.71420807, 6.71006706, 3.59513560
2.87228132, 3.42417873, 7.83102803, 16.21573310, 40.82554347, 16.48256655, 5.95189046, 3.56370594
2.66458252, 3.15832234, 7.60263112, 14.20563269, 51.75954018, 19.40747279, 5.24166004, 3.87620949
2.74317334, 2.89395923, 4.03112887, 14.36836804, 61.40582220, 23.79285607, 6.07247890, 4.56344168
2.81957444, 4.02492236, 5.99583189, 16.95877354, 55.62800554, 24.28065073, 6.81909085, 4.31277173
3.71819849, 5.27730992, 7.58287544, 19.27952282, 60.06475672, 22.52221126, 7.24223722, 4.94469413
4.25147033, 6.01456565, 8.38600024, 22.57376796, 61.95139224, 22.71453279, 9.03050386, 8.83317610
4.57711700, 6.22294143, 9.19510739, 25.36040221, 55.83569647, 23.67593715, 10.85702538, 13.32666500
4.15030119, 5.23450093, 8.76213444, 21.40035046, 46.50430088, 21.75086205, 8.73784871, 11.73136821
2.85919569, 3.79143772, 6.54599114, 15.49031956, 45.80911481, 19.52818476, 5.12347538, 5.06705042
3.04548847, 4.26028168, 6.08276253, 18.76166304, 51.99615370, 18.79561119, 5.94768863, 5.24880939
3.58120092, 4.88364618, 6.88294995, 20.74849392, 49.14366694, 17.97011408, 7.92464510, 6.65770231
3.10644491, 4.06509532, 5.91396652, 18.18378398, 49.51211973, 16.54463659, 8.51762878, 6.67270560
3.33166625, 4.46654229, 6.44592895, 18.55060646, 52.47285012, 14.86943173, 10.92359831, 9.26417832
3.35037311, 4.83218377, 6.80624713, 18.63799882, 57.63874565, 19.20937271, 10.68293031, 10.80046295
2.87662997, 4.18628714, 5.92030405, 15.84692399, 59.02901829, 19.41198084, 7.17809167, 9.35280707
3.29772649, 4.12007281, 5.67670679, 14.87279395, 63.87233360, 17.61107606, 7.16065639, 8.76783896
3.37638860, 3.86005181, 5.11859356, 12.68463638, 60.27748336, 17.17265268, 9.48156105, 7.77817459
3.29393382, 3.54612465, 4.57711700, 10.56763928, 47.89911273, 17.57341743, 9.84885780, 5.34322000
2.95381110, 3.39484904, 4.59619408, 12.74950979, 54.41828737, 17.21699742, 6.74166152, 4.27492690
2.34520788, 2.99165506, 4.22788363, 11.59741350, 54.37209762, 20.01936562, 5.54977477, 4.41871022
2.50499501, 2.76134025, 4.08044115, 11.11980216, 47.24933862, 21.84090200, 7.06222345, 4.96739368
2.44438131, 2.83725219, 4.18330013, 12.64120247, 50.51905581, 19.25941328, 6.57647322, 5.56551884
2.02484567, 2.59326050, 3.70135110, 13.11487705, 50.16821703, 19.05583900, 5.84380013, 5.03487835
2.14476106, 2.58360214, 3.84707681, 13.65100729, 47.04917640, 17.99722201, 5.21536192, 4.90662817
2.18517734, 2.63628527, 3.85681216, 12.55388386, 43.62825919, 19.17811252, 4.51109743, 4.60163015
2.50000000, 3.09030743, 4.53321078, 14.49137675, 48.39188982, 17.04846034, 5.62361094, 3.93382765
2.85043856, 3.05368630, 4.73286383, 14.58080931, 44.52106243, 15.79082012, 6.66520817, 5.25119034
2.75227179, 2.51495527, 4.06509532, 12.55288811, 40.15003113, 15.96167284, 6.11964051, 4.67707173
2.78836870, 3.07814879, 4.83993802, 15.53061493, 43.47441776, 15.57000321, 5.38980519, 3.30529878
2.68328157, 3.05777697, 4.85540935, 15.40211025, 44.40129503, 17.45064469, 5.90127105, 4.12916456
2.31840462, 2.74772633, 3.98434436, 12.60357092, 44.57718026, 15.77577256, 5.41063767, 3.73496988
2.42899156, 2.80624304, 4.04351332, 12.17682225, 44.15569046, 16.09192344, 4.91680791, 3.17411405
2.91118533, 3.15039680, 4.35603030, 11.52063366, 43.57493546, 18.76699230, 6.63890051, 3.73496988
2.92403830, 3.36526373, 4.79322438, 14.00981799, 43.95480634, 23.40245714, 7.19027120, 4.78539445
2.69258240, 3.36897611, 5.36423340, 17.78482499, 52.27786338, 23.33023789, 7.21630099, 5.83309523
2.51992063, 3.19374388, 4.64758002, 15.77577256, 56.76024137, 21.56038033, 7.44815413, 4.59619408
2.31840462, 3.14642654, 4.15030119, 11.97288603, 57.15833273, 20.01811679, 7.91675439, 4.23674403
2.77938842, 3.38008876, 4.83476990, 13.81846591, 55.57022584, 16.73693520, 7.26808090, 4.84510062
3.27108545, 3.35410197, 5.36423340, 15.31665760, 52.66308005, 21.11101608, 5.85021367, 5.27257053
3.04548847, 3.34290293, 5.69868406, 17.46997424, 51.12166860, 20.60521779, 5.52268051, 5.08674749
2.21923410, 3.00000000, 4.80884602, 16.81591508, 56.53715592, 18.87524834, 4.84252001, 4.89642727
2.06760731, 3.12649964, 4.85283422, 13.78858223, 65.70692505, 19.52690452, 5.50681396, 5.16236380
2.39269722, 3.16227766, 4.90917508, 13.14819379, 61.31109198, 19.09515645, 7.16937933, 4.50000000
2.63153947, 2.85043856, 4.12310563, 14.21970464, 56.02499442, 21.64717072, 7.39425453, 4.86055552
2.64102253, 2.86792608, 4.12310563, 14.57394936, 58.94255678, 27.34593206, 5.67890835, 4.85540935
2.51992063, 3.33541602, 4.84767986, 14.64752539, 49.54442451, 27.23967694, 6.42456224, 4.36463057
2.51495527, 3.46410162, 5.00499750, 15.73213272, 52.35670922, 22.29461818, 6.53452370, 5.30094331
2.82842712, 3.38747694, 4.57165178, 15.51289786, 54.46397892, 23.24919353, 6.85747767, 7.14492827
2.88530761, 3.30907842, 4.35315977, 15.05988048, 43.91810561, 20.86444344, 7.22495675, 6.08892437
2.48997992, 2.82400425, 3.89230009, 14.43779762, 48.61095556, 18.15213486, 6.01456565, 4.06201920
2.27486263, 2.53475837, 3.82099463, 13.02113666, 55.87866319, 23.38589318, 6.90651866, 4.60163015
2.31840462, 2.90688837, 4.60705980, 14.39270649, 59.32916652, 25.40226368, 7.98435971, 5.01497757
2.31840462, 3.23264598, 5.21296461, 15.55634919, 56.69634027, 20.29470374, 6.95161852, 4.93203812
2.34520788, 2.82842712, 4.46094160, 14.28723206, 57.34849606, 21.00119044, 5.98122061, 4.55796007
2.96647939, 3.04138127, 4.15632049, 13.64184738, 59.00063559, 26.21354612, 7.39763476, 5.18652099
3.39116499, 3.44963766, 4.79583152, 14.55249120, 56.24722215, 32.40524649, 9.60078122, 6.02079729
2.84165445, 3.29772649, 4.53596737, 13.13392554, 46.54191659, 32.15625911, 9.95238665, 5.46580278
2.47991935, 3.07408523, 3.89551024, 10.65246450, 38.29621391, 26.34625211, 10.16734970, 4.03732585
2.95803989, 3.57770876, 4.78800585, 14.22146265, 38.63806413, 27.22774320, 10.18209212, 4.35889894
2.71569512, 3.50713558, 5.04727649, 15.27252435, 46.14650583, 26.97962194, 9.21683243, 4.71699057
2.77938842, 3.09030743, 4.52769257, 13.58859816, 51.78344330, 24.38390863, 8.78493028, 5.74891294
3.21325380, 3.65034245, 4.44971909, 12.42678559, 56.33782033, 23.08625132, 7.91517530, 6.21490145
2.76586334, 3.39852909, 3.86328875, 12.29024003, 56.09122035, 22.22161110, 6.84287951, 5.09901951
2.33987179, 2.74772633, 3.50000000, 12.07269647, 59.02181800, 19.58379432, 6.73795221, 5.08920426
2.44948974, 2.85482048, 3.87298335, 10.15997047, 57.21669337, 17.47068974, 6.75277721, 4.93457192
2.18517734, 2.51992063, 3.64348734, 8.95823643, 43.38980295, 15.16245363, 5.85662019, 4.66636904
1.79582850, 2.10356840, 3.29393382, 10.18086440, 42.55378949, 15.13026768, 5.11126208, 4.52216762
1.93002591, 2.28035085, 3.42052628, 10.04738772, 44.96860016, 14.91643389, 5.75543222, 4.61248306
2.24722051, 2.75227179, 3.97177542, 12.67379186, 48.37354649, 14.87195347, 7.03029160, 4.46374282
2.21923410, 2.77037904, 4.27200187, 14.02943335, 55.24264657, 14.95075249, 6.06836057, 4.69308001
2.21359436, 2.82842712, 4.65564174, 16.60798001, 50.36318100, 14.66458319, 5.45206383, 6.12576526
2.42383993, 3.30151480, 5.19133894, 18.20302173, 41.87182824, 14.98582664, 5.16478460, 5.14538628
2.63153947, 3.56370594, 5.16236380, 14.52067492, 45.41750764, 14.90301983, 5.63914887, 4.12916456
2.55929678, 3.23264598, 4.36749356, 13.08625233, 45.53734731, 15.99921873, 5.92241505, 4.94722144
2.63153947, 3.34664011, 4.75394573, 17.81081132, 55.85651260, 16.52271164, 7.00713922, 4.78278162
2.67861905, 3.48209707, 5.37587202, 18.29412474, 60.62837619, 18.44789961, 8.13787442, 5.86941224
2.81069386, 3.36154726, 4.82182538, 13.12726171, 52.91384507, 21.55342200, 7.22841615, 5.93295879
3.53906767, 4.33589668, 6.36396103, 17.32050808, 44.72750831, 19.69517707, 7.54320887, 5.91819229
4.72228758, 6.85930026, 10.69696219, 29.16504757, 55.73957302, 21.89006624, 10.18822850, 8.36361166
5.03984127, 7.45989276, 11.99270612, 34.89161790, 68.45107742, 22.83582711, 10.15750954, 8.15015337
4.10182886, 5.67009700, 9.33407735, 28.23827190, 62.92157817, 19.59846933, 8.28402076, 6.63324958
4.34165867, 5.89915248, 9.24932430, 26.23690149, 66.29366486, 24.24613371, 10.36580918, 7.11512474
5.55652769, 8.47938677, 13.72679861, 38.59144983, 75.84935728, 30.15128521, 14.25482374, 8.29457654
5.38284311, 8.62554346, 13.63176438, 40.59033136, 67.70875128, 31.41138329, 13.88434370, 7.78138805
3.71819849, 5.52946652, 8.02651855, 27.37380134, 61.40806136, 24.14176878, 8.51322501, 4.70372193
2.63153947, 3.58120092, 5.10881591, 16.64031250, 63.57121990, 21.30844903, 6.95341643, 3.35782668
3.10241841, 3.70472671, 5.46122697, 16.31793492, 54.02962151, 26.22689459, 9.01387819, 3.63318042
3.52491135, 4.15632049, 6.05805249, 17.24963768, 48.48066625, 32.48076354, 11.36881700, 4.10791918
3.95284708, 5.12835256, 7.25775447, 20.66700269, 56.38439500, 37.89953826, 14.95326051, 5.59240556
6.36592491, 27.24151244, 40.42307509, 26.50424494, 57.70550234, 34.37295448, 15.86190405, 6.49422821
6.38944442, 27.67580170, 40.75230055, 25.23440112, 58.00258615, 31.80055031, 13.63726512, 6.19273768
4.05585996, 7.17112265, 8.92888571, 17.51356617, 62.28422754, 31.95035211, 12.92478240, 5.46580278
3.92428337, 6.20080640, 9.07882151, 22.81337327, 72.59269936, 26.37944275, 11.66833321, 5.19374624
5.22015325, 7.84059947, 11.62002582, 29.23482512, 66.34794646, 27.43993440, 13.04703031, 6.98927750
5.60133913, 7.86288751, 11.76966440, 31.55867551, 52.45498070, 32.06126947, 16.37910254, 7.18679344
4.56070170, 6.68393597, 10.07348003, 28.82533608, 58.62209481, 30.31253866, 14.90050335, 5.60357029
5.32681894, 7.25086202, 10.30533842, 27.66450795, 63.86352637, 27.23462869, 13.92749080, 7.00178549
6.58027355, 8.51322501, 12.34908904, 30.97579700, 69.55177927, 30.53563492, 15.61809848, 8.64869932
8.24166245, 11.23721496, 16.49090659, 38.34612106, 67.99834557, 40.68261299, 21.80538924, 10.47616342
8.24621125, 11.33357843, 16.47118696, 37.53498368, 60.69369819, 42.26375516, 21.44935896, 10.72030783
6.86294397, 9.36215787, 13.95080643, 35.06850439, 56.95063652, 41.49608415, 17.65573561, 10.27253620
6.60113627, 9.48815050, 13.28062499, 32.80015244, 63.85413064, 42.58667632, 19.16115863, 13.12249976
7.79422863, 11.24833321, 15.85796330, 33.05034039, 72.31459051, 43.18159330, 19.46021583, 13.25235828
7.46491795, 10.45705503, 15.68916824, 35.44679111, 64.28782933, 40.60911228, 18.75966418, 12.77301844
5.86088730, 7.61577311, 10.92817460, 27.04302128, 61.08232150, 33.45444664, 16.19799370, 13.91312330
5.37354632, 6.83008053, 9.88685997, 24.02238539, 61.98407053, 32.22421450, 14.49223930, 16.47573974
4.42436436, 5.59910707, 9.54332227, 26.23594862, 59.39654872, 28.05040107, 14.46029045, 15.81296936
4.91934955, 6.81175455, 10.99431671, 32.66802718, 62.75328677, 25.26707344, 13.81756129, 10.77961038
5.56102509, 7.62069551, 10.79467461, 31.63739876, 56.86541128, 26.06146581, 13.58491811, 8.83600589
5.48178803, 6.60681466, 9.81070844, 24.93942662, 52.49357103, 28.32798969, 15.07564261, 11.75265927
4.21010689, 5.07444578, 8.82184788, 21.79965596, 56.03503368, 33.28963803, 14.35095816, 16.23499307
3.44963766, 5.10147038, 7.02673466, 17.53211339, 61.42922757, 31.43127423, 13.44897766, 14.42133836
3.91471583, 5.03984127, 6.37377439, 15.76784703, 55.88716311, 28.85870752, 15.06983742, 16.74813422
3.86975451, 4.97744915, 6.90470854, 17.37814720, 57.18150925, 33.69755184, 18.08521496, 17.66988964
3.87620949, 5.43599117, 7.77817459, 21.92601195, 61.39828988, 37.16988028, 21.08079695, 10.22130129
3.83731677, 5.14295635, 7.78299428, 22.27554713, 49.46488654, 34.21037854, 22.93959459, 6.37573525
4.30406784, 4.87339717, 6.81358936, 19.21522834, 41.88764734, 27.31666158, 19.87586476, 5.69209979
4.38748219, 4.80624594, 6.57837366, 19.03746307, 57.01754116, 26.43860813, 13.88884444, 6.05185922
4.76707457, 6.92098259, 10.21151311, 23.84376229, 59.22119553, 31.00000000, 13.62993030, 7.04272674
4.94722144, 7.09401156, 10.09207610, 22.87957605, 51.68752267, 29.20573574, 14.08012784, 6.61437828
4.77493455, 5.92241505, 8.05294977, 19.58889992, 51.95839682, 30.80543783, 14.94657151, 6.31664468
4.61789996, 5.68330890, 8.04207685, 21.76694742, 59.50420153, 32.29667166, 15.49031956, 7.87400787
4.23083916, 5.14052526, 7.15891053, 22.67928570, 63.52715955, 30.99919354, 15.69235483, 9.40212742
5.92663480, 7.60920495, 10.90183471, 26.51037533, 52.06462331, 30.05869259, 18.79827120, 9.75832978
7.16589143, 9.68374927, 13.14439044, 29.56771888, 55.44343965, 28.10382536, 18.66681548, 9.21411960
8.02340327, 10.75871740, 15.07564261, 39.01602235, 62.00302412, 34.70158498, 19.09188309, 11.00454452
7.15716424, 9.36215787, 13.55728586, 37.24043501, 58.29515417, 34.86187029, 18.53442743, 9.97622173
3.90192260, 5.45435606, 7.11688134, 19.43321898, 54.61959355, 27.35187379, 13.33135402, 5.10636857
2.95381110, 4.18628714, 5.86515132, 16.76901905, 54.66968996, 23.90083681, 9.84377976, 4.10791918
3.49642675, 4.49444101, 6.37965516, 17.71581215, 52.10686135, 27.01249711, 9.13920128, 4.56344168
4.11096096, 5.15024271, 6.87386354, 16.70029940, 49.37509494, 27.37471461, 10.46780779, 5.85875413
4.24264069, 5.11370707, 6.52111954, 15.23728979, 54.41736855, 27.69070241, 11.86064922, 5.74020906
4.01559460, 4.95227221, 6.93361378, 20.75752875, 49.95172670, 26.67161412, 11.06345335, 4.89642727
4.14728827, 5.39675829, 7.89461842, 22.55770378, 51.74504807, 22.65778012, 10.10940156, 5.26782688
3.53553391, 4.58530261, 6.51344763, 15.99609327, 57.66042837, 22.39698640, 10.68058987, 4.83993802
3.07001629, 4.17133072, 6.05805249, 15.61729810, 57.63874565, 22.11164851, 11.15011211, 4.64758002
2.76134025, 3.92746738, 5.63693179, 14.88203615, 59.98499812, 23.86105614, 10.31140146, 3.93700394
2.48495473, 3.20546408, 4.11096096, 14.20739244, 56.30430712, 24.14383979, 8.00156235, 2.85482048
2.53968502, 3.64005494, 4.61519230, 17.05505790, 56.62729024, 22.22779791, 8.77068982, 3.56721180
2.49499499, 3.69120577, 5.14538628, 17.10116955, 58.66025060, 23.45527659, 9.19646671, 4.09267639
2.58843582, 3.15436206, 5.01996016, 15.70429877, 61.96854041, 23.83065253, 8.29608341, 4.17133072
2.67394839, 3.36526373, 5.01497757, 16.12839112, 56.85112136, 19.73448758, 8.12557690, 4.78800585
2.80624304, 3.75499667, 5.28441104, 15.70748229, 49.17494281, 18.68689380, 9.76345226, 5.38052042
2.93257566, 3.98120585, 6.06217783, 16.45296326, 50.99779407, 27.09474119, 13.22970143, 5.29386437
2.87228132, 3.87943295, 5.62583327, 14.86690956, 50.05971434, 28.01963597, 12.07166103, 5.09411425
2.88097206, 3.56370594, 4.86826458, 11.54339638, 52.15218116, 24.73913903, 8.86707393, 5.56102509
2.63153947, 3.21325380, 4.28660705, 12.11816818, 54.22729940, 22.08449682, 7.74435278, 5.11859356
2.48495473, 3.20936131, 4.09267639, 12.54691197, 47.45524207, 23.29699551, 8.42911621, 5.48634669
2.83725219, 3.94968353, 5.64136508, 16.89082591, 43.05722936, 27.12102505, 10.70747403, 5.61025846
2.68328157, 4.00624512, 5.82451715, 17.32555915, 51.59384653, 30.82288111, 11.24388723, 5.17204022
2.95803989, 3.75166630, 5.60580057, 14.14036775, 53.24072689, 28.96333890, 12.11713663, 5.71401785
2.94533530, 3.74833296, 5.45664732, 13.76317551, 61.36448484, 28.02766490, 12.67576428, 5.69868406
2.58843582, 3.57421320, 4.87083155, 12.73872050, 63.51889483, 31.10305451, 10.64189833, 4.99249437
3.14642654, 3.81772183, 5.32681894, 13.54252561, 51.64711996, 26.41259169, 7.52163546, 4.45533388
2.83725219, 3.25576412, 4.74868403, 13.32103600, 48.40402876, 23.49414821, 8.37705199, 4.09878031
2.26936114, 2.74317334, 3.78813938, 11.99479054, 48.43139478, 22.65612500, 8.55862138, 3.98120585
2.32379001, 2.85482048, 3.44238290, 11.00681607, 46.11751294, 21.60034722, 6.55743852, 3.85356977
2.36114379, 3.31285375, 4.50555213, 12.03640312, 44.74231778, 20.50304855, 7.13967786, 3.34290293
2.37697286, 3.51781182, 5.29150262, 12.69744069, 45.80338415, 19.82990166, 9.03742220, 4.16533312
2.19658826, 3.13448560, 4.90407993, 11.64044673, 54.25172808, 19.26330709, 8.83459111, 4.01248053
2.52487623, 3.45325933, 5.06211418, 13.67388021, 57.91588728, 18.16934231, 7.34846923, 4.35028735
2.35584380, 3.23651047, 4.93710441, 14.75720163, 48.00442688, 19.30867681, 6.19071886, 4.57438520
2.13892496, 3.19765539, 4.88108594, 13.25801644, 48.33658035, 18.42213343, 5.75325995, 4.33012702
2.44438131, 3.02076149, 4.41588043, 12.49499900, 55.17585523, 21.37404969, 7.70551750, 4.20416460
2.15058132, 2.65518361, 4.00312378, 14.11470864, 44.28515553, 25.18332782, 9.63716763, 3.66060104
2.19658826, 3.00000000, 4.29243521, 13.15389676, 35.38820425, 20.36663939, 8.51469318, 4.33012702
2.37170825, 3.06186218, 4.18330013, 11.65761554, 49.37712021, 17.54422982, 6.45368112, 4.21604080
2.14476106, 2.79732015, 4.14728827, 12.10061982, 54.53943527, 19.10301023, 6.38944442, 3.61593695
2.10950231, 2.36643191, 3.79143772, 11.93105192, 44.59484275, 17.57697357, 5.97076210, 3.66742416
2.14476106, 2.42899156, 3.69459064, 15.78765340, 44.39031426, 16.83597339, 6.57457223, 4.15932687
2.35053185, 2.90258505, 4.14125585, 15.09884102, 46.74826200, 19.41713161, 6.91375441, 4.48330235
2.85919569, 3.46049129, 4.71168760, 12.09855363, 46.93612681, 21.15655927, 7.68439978, 4.63950428
3.02076149, 2.97069016, 4.53321078, 12.41672259, 48.48272888, 19.75221507, 7.24396300, 4.78016736
2.70185122, 2.43926218, 4.01248053, 10.73429085, 46.07738057, 18.09834247, 5.71182983, 4.10487515
2.57390754, 3.16227766, 4.07430976, 13.73317152, 47.84192722, 17.80449381, 5.91819229, 3.84382622
2.58360214, 3.38747694, 4.43283205, 14.78935428, 58.97584251, 18.84277050, 6.07453702, 3.40587727
2.04939015, 2.72029410, 4.07737661, 11.33798924, 53.89410914, 17.79044687, 5.49090157, 3.37638860
1.73205081, 2.12720474, 3.36154726, 9.30994092, 38.17623606, 16.26806688, 4.82182538, 3.18198052
1.60468065, 2.12720474, 3.17017350, 8.38450953, 44.46290589, 20.51950292, 5.47494292, 2.53475837
2.21923410, 2.90258505, 3.83731677, 10.69696219, 44.01391825, 20.00624902, 6.34822810, 3.99374511
2.94957624, 3.31662479, 4.52769257, 12.71416533, 39.78127700, 18.57417562, 6.84105255, 4.31277173
2.50499501, 2.81069386, 4.12613621, 12.45893254, 50.65496027, 19.22303306, 6.12780548, 3.96862697
1.93649167, 2.50998008, 3.75499667, 12.95376393, 54.59052116, 15.91147385, 5.09165985, 4.08962101
2.15638587, 2.69258240, 3.56721180, 12.57974563, 46.21715050, 15.76150374, 6.07247890, 3.78483817
2.47487373, 3.13448560, 3.82099463, 11.45316550, 45.77116997, 18.52430835, 7.38410455, 4.59347363
2.70647372, 3.36154726, 4.61789996, 12.70039369, 49.47878333, 27.00555498, 9.73652916, 6.09302880
2.73404462, 3.27871926, 4.62060602, 12.38345671, 60.89745479, 30.85044570, 10.16857906, 5.88005102
2.45967478, 2.70185122, 3.69797242, 10.74825567, 60.87322893, 24.00052083, 7.81344994, 4.13219070
2.51992063, 2.49499499, 4.02181551, 11.91532626, 53.74848835, 18.84874001, 6.74907401, 3.52845575
2.68793601, 3.29013678, 5.00749438, 14.53530185, 52.63150197, 22.56490638, 7.93410360, 5.26307895
5.00249938, 6.53452370, 9.93981891, 24.78810198, 54.06315751, 24.47856205, 11.64474130, 7.07636913
6.35216499, 9.03880523, 13.43130671, 29.91487924, 69.99803569, 29.56475943, 13.50370320, 7.86606636
6.57076860, 9.62029106, 14.38488790, 38.67492728, 76.91488803, 39.96404634, 15.26351860, 9.91715685
5.76628130, 7.73142936, 11.72177461, 36.11474768, 69.13410880, 35.33341195, 14.93318452, 8.99722179
3.62284419, 4.64488966, 6.57267069, 18.61652492, 57.07538874, 18.91824516, 11.62540322, 4.57984716
3.43147199, 4.48330235, 6.73238442, 16.47346351, 50.39518826, 21.49185892, 9.65789832, 5.10392006
3.26343377, 4.13219070, 6.46142399, 16.32789025, 55.20212858, 30.49795075, 8.21279490, 5.62805473
2.64102253, 3.62973828, 5.38284311, 15.78923684, 58.83855029, 33.76055391, 8.52642950, 4.20713679
2.48997992, 3.47850543, 5.13809303, 13.00576795, 59.03050059, 26.21640708, 8.31865374, 3.44963766
2.47487373, 3.19374388, 5.00749438, 12.15318888, 59.06902742, 25.25074256, 7.61741426, 3.42417873
2.81957444, 3.52136337, 5.53624421, 15.73848786, 55.95042448, 26.92675250, 7.32802838, 3.43874977
2.83284309, 3.57421320, 5.15509457, 15.24139101, 48.08949989, 21.63619652, 6.51920241, 3.07408523
3.22102468, 4.46654229, 7.00178549, 16.98455180, 46.11344706, 23.48031090, 8.47201275, 3.83079626
3.27108545, 4.31856458, 7.07283536, 17.07922715, 48.54714204, 22.44326180, 8.81192374, 3.94017766
2.63628527, 3.22877686, 5.44518136, 11.77603499, 45.62181496, 19.34360359, 6.06217783, 3.09030743
2.74772633, 3.61247837, 5.58345771, 10.47497017, 44.94774744, 16.47877423, 6.24299608, 3.56721180
2.77488739, 3.44238290, 4.46654229, 9.81835017, 42.98371785, 16.40655357, 6.90651866, 3.43511281
2.25277607, 3.02902625, 3.53906767, 10.01623682, 52.10950009, 19.16376790, 6.38357267, 3.23264598
2.12720474, 2.87662997, 3.32791226, 10.56763928, 56.20253553, 16.36688730, 5.31742419, 3.30529878
3.01247407, 3.25960120, 4.31856458, 14.68247254, 52.31300030, 18.62189571, 6.35019685, 3.97806486
2.96647939, 3.39116499, 4.95479566, 15.41995460, 54.22683837, 22.75796564, 8.38898087, 4.23379263
2.38746728, 2.93683503, 4.61248306, 12.27497454, 47.89754691, 25.56902423, 8.63568179, 3.65376518
3.05368630, 3.26343377, 4.67439836, 13.91312330, 51.56161363, 29.52710619, 9.96493853, 5.54301362
3.27108545, 3.76164857, 5.67670679, 15.96010652, 56.08342001, 31.68832593, 15.31992167, 6.10122938
3.45687720, 4.59347363, 7.48665479, 21.03627819, 48.09989605, 35.68613176, 16.87824043, 5.67009700
3.86005181, 4.59347363, 7.59934208, 23.64423820, 41.84793902, 39.33414547, 15.41022388, 7.88035532
5.73149195, 6.26099034, 6.85383105, 19.51858089, 52.54093642, 39.64719410, 15.14595656, 8.56446145
6.26099034, 6.48845128, 7.09048658, 17.35511452, 63.01428409, 37.76638717, 14.56708619, 7.86765531
4.92696661, 5.04479930, 7.66974576, 17.72145592, 64.73194729, 35.59915729, 14.27935573, 6.36788819
4.46934000, 5.66347950, 8.19908531, 17.54066703, 57.90746929, 37.96116437, 17.23223723, 5.38516481
3.87620949, 4.91426495, 7.43975806, 19.07812884, 57.95644917, 39.86727982, 17.88714622, 5.88642506
4.28077096, 4.73814310, 7.97652807, 20.97260117, 59.21444081, 43.97300308, 18.20164828, 6.15832770
5.65906353, 7.36885337, 11.89222435, 30.93622472, 61.46523408, 44.95497748, 22.17036310, 8.86425406
6.48845128, 9.24256458, 14.05613745, 40.75046012, 65.66144226, 43.37770164, 20.75752875, 9.90580638
6.34034699, 9.09670270, 13.39309524, 38.80786003, 66.57120248, 44.61501989, 19.92548619, 8.63278634
5.88005102, 8.50294067, 13.49166409, 35.63074515, 67.48333128, 39.56829539, 20.23178193, 8.20822758
5.80947502, 8.35613547, 13.77588473, 35.99861108, 59.72876192, 32.18501204, 16.42482877, 7.61084752
5.13565965, 7.05691151, 11.31812705, 29.82742027, 58.42195649, 24.13141107, 15.01998668, 6.33245608
3.78813938, 5.03239506, 7.76369757, 21.68813039, 55.58169663, 29.79345566, 14.68757979, 4.96487663
3.12249900, 4.32145809, 6.79705819, 18.58695779, 57.85261446, 36.00763808, 12.48398975, 3.64005494
3.08220700, 3.79473319, 5.98331012, 17.55562588, 65.21081199, 29.35387538, 14.37532608, 3.69797242
3.40220517, 3.68103246, 5.74891294, 18.44925473, 62.52859346, 31.37196200, 15.97732769, 4.34165867
4.07430976, 4.19523539, 7.12390342, 22.15795568, 58.42388210, 33.06848953, 15.18634255, 5.05470078
3.57770876, 3.87943295, 6.31862327, 18.37797595, 62.27258626, 31.59549018, 15.89654050, 4.40738017
3.26726185, 3.67763511, 4.71699057, 12.62339099, 59.88447211, 33.58682778, 15.74801575, 3.79473319
3.43511281, 3.94017766, 4.95479566, 13.78676902, 54.72819200, 31.50753878, 16.68307526, 4.10182886
3.58817502, 4.17731971, 5.55652769, 16.55596569, 60.90730662, 36.35278531, 14.55420901, 4.36176570
4.36463057, 5.09901951, 7.06045324, 19.37072533, 61.49674788, 35.79210807, 11.70256382, 5.46351535
4.31566913, 5.52494344, 6.52303610, 15.88080602, 60.47396134, 31.58718094, 13.27968373, 5.31742419
5.97076210, 7.60756203, 8.62699252, 20.08108563, 64.87622831, 36.39917581, 15.67721276, 6.79705819
6.01664358, 7.21803297, 9.04709898, 21.16837263, 57.25207420, 34.84501399, 16.53934702, 7.61577311
4.03732585, 4.80364445, 6.86658576, 16.30184039, 49.17214659, 35.23669962, 15.86348007, 6.06836057
4.99249437, 6.64642761, 10.47258325, 24.87317833, 54.09528630, 35.30970122, 18.21057385, 6.15223537
7.86288751, 10.10445446, 14.74109901, 36.20186459, 57.89840240, 36.11301704, 20.93382430, 8.00312439
7.79743548, 9.87547467, 13.38562662, 34.46846385, 53.50093457, 34.53802253, 20.15316352, 8.10863737
4.84252001, 7.42125326, 8.85720046, 23.03312832, 47.56311596, 35.00035714, 22.48833031, 6.67832314
4.69840398, 7.54652238, 9.51708989, 26.79552201, 57.39120142, 45.97689637, 23.68174402, 6.97137002
5.92030405, 7.81024968, 9.67212490, 28.51140123, 64.99788458, 42.20515371, 24.84501962, 6.87568178
6.16238590, 8.00000000, 9.50920607, 26.95644635, 62.76244896, 41.02194535, 25.69435736, 6.44204936
6.95161852, 8.53814968, 11.36111790, 29.86804312, 61.90577517, 46.91028672, 24.39005945, 8.93448376
6.89021045, 8.02496106, 10.71214264, 29.59856415, 60.04810572, 43.54451745, 25.32242090, 10.19558728
6.73424086, 7.72010363, 9.45912258, 26.11800145, 60.45225389, 37.55762240, 24.46579245, 9.63068014
6.38553052, 8.18993284, 11.30707743, 26.67161412, 62.78913123, 35.80223457, 22.94994553, 8.54839166
4.87852437, 7.14492827, 10.98294132, 26.26880279, 56.50022124, 38.99455090, 23.23198227, 6.84105255
4.41871022, 5.71182983, 8.38152731, 22.13933152, 62.74213098, 34.64029446, 23.57965225, 5.93927605
4.18628714, 4.43283205, 7.50832871, 21.05409699, 62.93230490, 31.50277766, 21.12877185, 4.98998998
5.59240556, 7.81984655, 16.24346022, 28.57708873, 52.20153254, 36.12685981, 23.07541982, 6.92820323
6.31466547, 9.23850637, 18.53577622, 31.23379580, 60.91305279, 36.00000000, 25.80649143, 9.60989074
5.97076210, 7.69415362, 13.11678314, 26.99305466, 58.68006476, 37.83417767, 25.10975906, 8.86989290
5.58345771, 7.56637298, 12.43885043, 29.79093822, 45.44557184, 36.05828615, 23.31898368, 6.90108687
4.44690904, 6.40702739, 10.57000473, 26.23642506, 46.68002785, 26.97359820, 20.50060975, 7.02673466
5.12591455, 6.73052747, 9.96493853, 25.02648597, 49.94496972, 31.71789716, 20.10596926, 7.47830195
5.30094331, 6.97495520, 10.24329049, 26.27689099, 59.62612682, 34.95747417, 20.12461180, 7.31778655
3.99061399, 4.66636904, 6.30674242, 18.90568698, 55.19941123, 33.03255969, 17.33565690, 7.48999332
3.51425668, 3.87943295, 5.73585216, 16.74589502, 42.09364560, 32.69785926, 20.41261865, 7.66974576
3.33166625, 3.87620949, 4.83218377, 16.77870674, 47.06219289, 33.25319534, 28.82186670, 8.41575903
4.81404196, 6.08070720, 4.78016736, 13.08434179, 53.44600079, 34.41511296, 29.24209295, 7.93095202
5.93717104, 9.04848054, 5.27494076, 13.68027777, 55.74428222, 33.87550738, 24.67184630, 7.67951821
7.87400787, 13.36974196, 12.44286944, 20.19158240, 57.10035026, 33.88915756, 19.02038380, 7.31266025
8.93168517, 14.19947182, 16.47498103, 20.94158542, 56.38971537, 28.21967399, 14.57566465, 6.96957674
8.15935046, 14.49223930, 20.44137960, 20.29347186, 61.94594418, 32.03201523, 21.19728756, 8.58195782
7.12390342, 15.39967532, 22.17261825, 21.29730030, 66.69257830, 34.68753378, 22.18896122, 9.81453004
5.63027530, 11.41161689, 15.25532694, 22.17374574, 58.84619784, 34.68825450, 25.15750385, 10.09083743
4.85540935, 6.75647837, 8.18229797, 21.20200462, 64.14144526, 40.56075690, 23.82120904, 8.65303415
4.92442890, 6.17859207, 8.56446145, 20.86803776, 69.57226459, 37.45363801, 17.84936974, 8.33516647
5.11126208, 5.79439384, 8.12711511, 22.29630014, 57.50847764, 36.84528464, 18.50000000, 9.47760518
4.63680925, 4.94469413, 6.76387463, 17.57341743, 47.51526071, 32.09711825, 19.50256393, 8.36809417
4.30116263, 5.74891294, 10.30412539, 15.56357928, 52.48094892, 30.49016235, 24.13037505, 8.21735967
4.63141447, 5.75325995, 10.15627885, 18.36368699, 63.95838491, 38.71562992, 26.56830819, 10.20416582
4.55521679, 5.38516481, 6.66895794, 18.11353085, 73.57818970, 46.61062111, 24.44227894, 11.21494539
5.39675829, 6.86476511, 9.61119139, 22.92651304, 74.38144930, 52.24174576, 25.55924490, 10.85241909
5.50000000, 7.26291952, 11.94571053, 31.20616926, 66.22046511, 45.67028574, 26.86680107, 9.59426912
6.54599114, 9.08019824, 14.68928181, 38.94675853, 64.73870558, 44.14606438, 26.32536799, 10.76684726
8.22344210, 11.14001795, 17.04992669, 48.83953317, 69.17875396, 40.26164428, 30.50450786, 12.25051019
7.92148976, 10.30897667, 14.96495907, 43.51321638, 69.71136923, 41.59747588, 36.27843712, 11.93943047
8.12865302, 9.66307405, 11.58123482, 29.61038669, 70.43525396, 49.63113942, 30.45898882, 10.04614354
8.95404936, 8.30060239, 9.86407624, 27.77633885, 64.21954531, 39.74764144, 18.72431574, 8.07774721
7.54983444, 5.60133913, 7.71686465, 23.70495729, 63.78440248, 32.57261119, 22.68810261, 7.51997340
4.93203812, 5.00749438, 6.60113627, 22.15682739, 64.95036566, 35.29872519, 20.54142157, 6.22896460
4.38748219, 5.16236380, 7.11336770, 22.11843123, 54.10360432, 35.15288039, 15.97498044, 6.25899353
4.65564174, 5.99583189, 8.36510610, 20.54993917, 52.27618961, 39.26512447, 16.91966312, 6.76202632
4.53872229, 5.65685425, 8.29457654, 22.74532919, 59.97541163, 36.72669329, 17.29812129, 5.97076210
4.36463057, 4.85025773, 7.33484833, 24.40184419, 62.36024375, 33.99338171, 19.08467972, 5.38052042
4.76707457, 5.74891294, 8.12403840, 28.25729994, 63.96522493, 39.46200704, 18.40652058, 5.90127105
4.81923230, 6.33245608, 9.74422906, 31.79740555, 60.42102283, 35.69243617, 20.48475043, 6.87931683
3.53199660, 4.98748434, 8.55716074, 26.92582404, 55.73374202, 32.53574957, 20.57000243, 6.24499800
3.44601219, 4.56070170, 6.81358936, 19.82422760, 54.61616061, 34.59877165, 18.62055316, 5.72712843
4.00000000, 5.23927476, 7.65179717, 19.45057840, 48.15625608, 34.86366303, 20.48047851, 6.01456565
4.28952212, 5.34555890, 7.70227239, 20.33101080, 49.42671343, 33.81530718, 17.19738352, 5.83095189
3.99374511, 4.78278162, 6.18869938, 15.89575415, 59.30619698, 26.97869530, 11.68760027, 4.87596144
3.32791226, 4.26028168, 5.97076210, 15.87057025, 65.02903198, 29.20873157, 16.94181218, 4.95731782
4.30116263, 5.21296461, 7.85652595, 21.18313008, 64.90724151, 46.42116974, 27.91191502, 6.49230314
4.66100847, 5.49772680, 8.58923745, 27.06427535, 65.42438383, 43.74414247, 28.02677291, 6.93361378
4.41304883, 5.73585216, 8.37705199, 28.34828037, 75.63051633, 29.63612660, 19.39652031, 6.86294397
4.63680925, 5.82237065, 7.96868873, 23.73604853, 71.39695372, 34.38022688, 21.41261311, 6.93902010
3.95916658, 4.51940262, 7.07106781, 18.31256399, 68.05696144, 29.19845886, 20.36909424, 5.51135192
3.18590646, 4.03732585, 6.58596994, 16.24192107, 65.32151254, 20.58275978, 16.83894296, 3.95916658
3.08220700, 4.11703777, 7.35866836, 19.15137071, 55.56595181, 29.80562028, 21.04043726, 3.95284708
3.41686991, 4.70106371, 7.84378735, 18.15626614, 55.98638227, 37.15037012, 22.66770831, 5.00000000
3.64691651, 4.79583152, 6.62759383, 16.43624045, 50.68111088, 31.43286497, 20.26079959, 5.37819672
3.50000000, 4.25734659, 6.10532554, 17.25688268, 61.89365880, 28.58845921, 19.09515645, 5.18411034
4.53045252, 5.42217668, 7.67789034, 21.91289575, 60.31977288, 32.62859176, 20.97975214, 5.83095189
4.85540935, 6.00000000, 8.02651855, 21.26617032, 62.59512761, 33.35453492, 19.07419723, 5.82451715
4.02802681, 5.05222723, 7.22841615, 20.13020119, 65.90845924, 32.29086558, 20.85425616, 5.41063767
3.69797242, 4.65295605, 7.26119825, 21.16482932, 52.68775949, 26.97128102, 20.74005786, 5.47950728
3.34290293, 4.51940262, 6.56124988, 15.89024858, 56.10525822, 27.61068634, 18.50743094, 5.17687164
3.44238290, 4.77755167, 6.83922510, 19.10628169, 54.73047597, 27.55358416, 16.92483382, 4.74868403
3.85681216, 5.08674749, 7.26980055, 20.31994094, 44.46431153, 31.36837579, 15.52578500, 7.85493475
3.86652299, 4.81663783, 6.83373983, 15.09387293, 49.31379117, 33.79829877, 16.33477885, 9.00555384
3.61247837, 4.64488966, 6.95521387, 18.54521502, 53.13708686, 28.11183025, 16.47498103, 6.50768776
3.23651047, 4.25734659, 6.92639878, 19.69136867, 56.08876893, 22.66219319, 14.26271363, 4.70637865
3.31662479, 4.48887514, 7.67463354, 22.94122926, 52.65097340, 31.63937420, 13.47126572, 4.36463057
4.93457192, 7.45150991, 17.25181150, 23.48563391, 54.16664103, 33.72017200, 15.21594558, 4.67172345
5.65243310, 11.60064653, 25.76722725, 19.39523137, 58.28979327, 25.73421846, 12.12332463, 5.61693867
4.94974747, 10.22374687, 22.20247734, 17.52854814, 50.68308396, 25.62176809, 19.32679487, 6.59355746
5.11615090, 7.78941590, 19.61631974, 16.54765844, 56.04417900, 27.43218912, 21.46508793, 6.69141241
5.91819229, 9.46572765, 22.32431410, 17.69745744, 52.46546483, 29.92114637, 18.92220917, 6.89021045
5.59910707, 8.44097151, 17.25398505, 21.11752826, 46.32628843, 31.13799929, 21.98522231, 6.49037749
4.38178046, 7.13792687, 12.50299964, 21.94196892, 58.88993972, 31.37395417, 20.31809538, 4.98748434
3.49642675, 5.71401785, 10.51903037, 15.88474111, 61.28621378, 30.03955725, 17.95689283, 4.25734659
4.15932687, 5.53850160, 9.92345706, 15.43291936, 55.16090101, 31.29257100, 18.74033084, 4.39317653
6.13188389, 8.43208159, 15.69235483, 17.17192476, 48.56722146, 34.79475535, 18.22086716, 5.90973773
6.01872079, 10.16857906, 22.56269044, 19.05452702, 42.93658114, 33.76499667, 17.67625526, 6.12372436
4.44690904, 8.12865302, 18.60913754, 20.78821782, 57.05151181, 30.88405738, 19.80025252, 6.23899030
3.87620949, 4.50277692, 6.74536878, 16.67333200, 62.69031026, 32.77155779, 18.94333656, 6.29880941
3.29393382, 3.40954542, 4.56344168, 11.74201857, 53.15425665, 34.74874098, 17.70593121, 6.00000000
3.06186218, 3.51781182, 5.82022336, 16.36841471, 52.41111523, 32.09984424, 20.71593589, 6.29483916
3.59513560, 4.12310563, 6.13799642, 18.14386949, 50.84658297, 30.59084830, 20.71412562, 7.17112265
3.94968353, 5.27019924, 6.02494813, 15.64129151, 49.08640341, 29.88770650, 21.54530111, 7.39425453
3.99374511, 5.38516481, 6.39531078, 13.82570071, 59.70280563, 34.08922117, 25.25668228, 6.31268564
5.70745127, 8.43504594, 5.25357021, 13.21835845, 55.36131321, 35.95483278, 24.42897869, 7.51332150
7.07283536, 10.64894361, 5.76194412, 15.19374871, 52.03988855, 34.21001315, 22.94831148, 7.37902433
6.90651866, 9.71339282, 5.92874354, 16.66433317, 56.51968684, 31.04834939, 20.74186588, 5.76628130
6.13392207, 7.92306759, 5.10392006, 14.87027236, 54.96362433, 28.40906545, 18.33030278, 7.33655232
6.95521387, 8.38600024, 5.21536192, 14.94238937, 56.81241062, 31.90415333, 17.37526978, 8.47643793
7.34166194, 9.10906142, 8.24772696, 24.15212206, 53.86394898, 36.22464631, 14.55249120, 8.38450953
5.14052526, 6.34822810, 8.18382551, 24.83042489, 51.71726017, 38.11725331, 13.48425007, 7.46826620
5.92874354, 7.79262472, 11.47824028, 31.36040497, 60.13567992, 32.02381926, 17.48713813, 9.63327566
7.36036684, 10.02372186, 14.83829505, 39.13118961, 62.48039693, 30.87029316, 20.30824956, 10.41633333
6.59734795, 9.04295306, 13.25141502, 34.65725032, 55.43847942, 32.01874451, 16.10357103, 8.02651855
6.05185922, 8.24014563, 11.17474832, 29.24166548, 62.16409736, 30.92652583, 14.50689491, 7.88828245
4.95227221, 6.71379178, 8.99444273, 24.22653504, 63.11041911, 27.28002933, 13.10152663, 6.80991924
3.72491611, 4.50832563, 6.69514750, 17.76161592, 60.93110864, 18.65609820, 8.52056336, 5.51815186
3.84707681, 4.22492603, 5.54301362, 16.93221781, 67.33461220, 16.92040189, 8.06070717, 7.21630099
3.82753184, 4.42436436, 5.79870675, 18.32075326, 66.58453274, 17.37886648, 7.81184997, 6.87386354
3.33541602, 4.45252737, 6.25699608, 16.10822771, 51.59336198, 21.15655927, 7.47328576, 6.42650761
3.25576412, 4.75394573, 6.71006706, 17.33349359, 49.53660263, 20.29778313, 7.55148992, 6.83556874
3.20546408, 4.77231600, 6.98032951, 21.27381019, 65.56656923, 17.56416807, 7.01605302, 6.59166140
3.06594194, 4.88876262, 7.29554659, 23.35861725, 62.76782615, 19.82611914, 7.41114026, 5.79223618
2.94108823, 4.27200187, 6.21892274, 21.00059523, 53.62019209, 18.79960106, 7.43471587, 5.44977064
3.04548847, 3.89551024, 5.49317759, 17.12965265, 46.35865615, 16.95508773, 7.01961537, 5.27730992
3.65718471, 4.66904701, 6.03738354, 18.23184028, 36.34006054, 20.69541012, 8.93028555, 5.63914887
3.45325933, 4.40170422, 5.84166072, 17.81923118, 46.26202546, 20.23425314, 8.87975225, 6.07659444
3.02902625, 3.59861084, 5.27494076, 13.53883304, 60.64074538, 14.76228302, 7.13792687, 5.17445649
2.74317334, 3.27871926, 4.65026881, 12.44387399, 62.35503187, 16.61475248, 6.58407169, 5.93295879
2.66458252, 3.42782730, 4.49444101, 12.63032066, 65.83616028, 19.48845812, 7.00178549, 5.75760367
3.30151480, 4.17432629, 5.14538628, 13.38095662, 65.77784581, 21.58066264, 8.79630604, 7.02139587
3.44963766, 4.36749356, 6.00208297, 17.15444549, 68.60138483, 23.62572750, 8.85578907, 7.76369757
3.35410197, 3.91152144, 6.39531078, 20.31132689, 67.35762763, 24.56471046, 8.79772698, 6.19677335
3.75499667, 4.56618002, 7.31607818, 22.50222211, 65.44597008, 27.32215218, 9.86154146, 6.15832770
7.40270221, 8.94427191, 12.83354978, 29.96998498, 75.38451432, 32.33844461, 15.70031847, 11.95930600
8.64580823, 10.47616342, 14.65776245, 32.75858666, 70.64842532, 34.26988474, 17.54422982, 13.27403480
6.51536645, 8.07929452, 10.78424777, 23.65956466, 61.65610270, 29.05124782, 13.03073290, 8.65881054
4.79061583, 5.96028523, 7.55479980, 17.01176064, 54.91994173, 24.58403954, 10.51903037, 5.80947502
3.84057287, 5.05964426, 7.09048658, 19.00000000, 60.19260752, 23.96664349, 10.12175874, 5.34555890
3.29013678, 3.98748041, 6.02702248, 15.34438008, 53.43266791, 19.69898475, 8.81050509, 4.74341649
3.10241841, 2.93683503, 4.48051336, 10.85587399, 48.40377051, 19.02695456, 7.65506368, 4.10791918
4.30116263, 4.99499750, 6.91375441, 16.68232598, 58.18032313, 21.79162683, 10.52021863, 6.28092350
4.70903387, 5.67890835, 7.52163546, 17.81151313, 55.10399260, 21.28085995, 11.33909167, 6.91736944
3.67423461, 4.44409721, 5.54301362, 12.55388386, 53.23203922, 18.99012901, 8.73069299, 5.20336430
2.85482048, 3.62284419, 4.60705980, 11.98540779, 50.71858634, 20.87881702, 6.64830806, 4.06816912
2.55929678, 3.44601219, 4.79843725, 15.33541653, 45.38336700, 19.65006361, 5.61025846, 5.06458290
2.66926956, 3.46770818, 4.53321078, 13.68210510, 47.94632416, 16.31257184, 5.94978991, 6.48845128
3.11448230, 3.73162163, 4.66100847, 13.13773192, 56.22521676, 22.35900266, 7.63544367, 9.03050386
3.11046620, 3.70135110, 4.75657440, 16.38902072, 51.21449990, 23.96351393, 7.74435278, 8.97635784
2.99583044, 3.60901649, 4.68241391, 15.46447542, 54.39806982, 20.94039159, 9.17605580, 9.61899163
3.56019662, 3.67763511, 4.43846820, 12.19631092, 55.33760024, 20.80925275, 10.83166654, 10.21028893
3.35782668, 3.15039680, 4.32145809, 12.18913451, 46.30037797, 20.34268910, 8.63568179, 7.15891053
2.96226265, 3.51781182, 5.41063767, 15.94600263, 57.62746741, 21.01725482, 6.84653197, 6.68954408
2.72029410, 3.59861084, 4.86312657, 14.12444689, 55.87463646, 19.03549316, 8.59360227, 5.83523778
2.26936114, 3.03726851, 3.86005181, 11.49782588, 49.87033186, 15.57481942, 7.85970737, 4.46934000
2.26384628, 2.88097206, 3.95600809, 12.07373182, 61.83849933, 17.46854316, 5.06705042, 5.98122061
2.10356840, 2.53475837, 3.29772649, 9.94233373, 60.14170766, 22.48443906, 5.25119034, 5.61025846
2.54950976, 2.72029410, 3.60208273, 10.31867240, 45.23134975, 25.25371260, 10.54395561, 4.42436436
2.96226265, 3.18982758, 3.90512484, 11.32143984, 46.71937500, 29.44486373, 12.51099516, 6.87931683
3.04959014, 3.56019662, 4.55521679, 12.72006289, 50.77499385, 32.13292704, 18.70962319, 6.95161852
2.83725219, 3.44238290, 5.08674749, 15.31584147, 50.71809342, 29.72835347, 18.92617235, 4.28952212
2.35584380, 3.08625987, 4.80104155, 13.98391934, 49.40723631, 24.79969758, 9.44192777, 3.40220517
2.38222585, 3.00832179, 4.24264069, 11.68760027, 40.23213889, 18.67083287, 8.92608537, 3.37638860
2.50499501, 2.76134025, 3.70135110, 11.82264776, 39.43570717, 20.44137960, 8.84731598, 3.18198052
2.74317334, 3.31662479, 4.25147033, 13.00096150, 34.75917145, 24.32077301, 5.61693867, 3.09838668
2.69722079, 3.27108545, 4.29534632, 12.03847997, 36.98715993, 21.71405075, 5.58569602, 3.17017350
2.16217483, 2.71108834, 4.12007281, 9.96117463, 46.58835691, 16.36994197, 5.47950728, 2.86356421
2.57875939, 3.71146871, 5.50681396, 14.54733653, 43.67092855, 17.08947044, 7.22149569, 3.37268439
2.78836870, 3.68103246, 5.29622507, 14.60821687, 40.96187252, 19.63160717, 7.20763484, 3.18590646
2.31840462, 2.87662997, 3.85356977, 10.54158432, 43.86627406, 20.22189408, 5.05964426, 2.54950976
2.07364414, 2.65518361, 3.54259792, 10.68176015, 44.35397389, 20.94874698, 4.27784993, 2.54950976
2.60288302, 3.64005494, 5.37819672, 15.44101681, 49.16019731, 19.73575436, 5.95399026, 3.38747694
2.75227179, 3.76497012, 5.68330890, 16.46435544, 54.10568362, 17.17192476, 6.34625874, 3.42417873
2.46981781, 2.96647939, 4.70106371, 16.11908806, 54.54172715, 19.56591424, 5.08674749, 2.84165445
2.57390754, 3.48568501, 5.16236380, 17.00367607, 57.38139943, 19.30349709, 6.15629759, 3.46049129
2.30217289, 3.51425668, 4.76182738, 13.94811815, 58.81135095, 16.17405330, 6.08892437, 3.28252951
2.31840462, 3.33166625, 5.06705042, 12.30345480, 49.79206764, 19.98124120, 6.09097693, 2.80178515
2.59807621, 3.39116499, 4.87339717, 14.27585374, 48.18791342, 19.28081948, 6.54980916, 3.18982758
2.96226265, 3.20156212, 4.28369000, 15.02747484, 47.24298890, 13.02401628, 5.88005102, 5.75760367
2.88530761, 3.21714159, 4.44128360, 15.46285873, 46.16519252, 15.00166657, 5.82022336, 5.68110905
2.46475151, 3.09838668, 4.40170422, 17.17993015, 47.12244688, 15.87923172, 5.88005102, 3.06186218
2.72029410, 2.99583044, 4.60977223, 16.63129580, 40.58509579, 14.21970464, 5.05964426, 2.67394839
2.66926956, 2.84604989, 4.12310563, 13.30225545, 34.18406061, 13.73135099, 4.39602093, 2.80178515
2.39269722, 2.71108834, 4.12613621, 12.92188067, 42.66761067, 16.81071087, 5.43599117, 4.63411264
2.55929678, 3.50713558, 5.49090157, 15.53866146, 60.52891871, 30.24690067, 11.39078575, 4.98998998
2.92403830, 4.04351332, 6.04979338, 16.49166456, 59.94434919, 31.52895495, 13.96334487, 3.99374511
2.98328678, 3.84382622, 5.17204022, 15.24713088, 51.57009793, 22.63238830, 10.72963187, 3.91471583
2.86792608, 3.32039154, 3.72155881, 10.99772704, 47.17970962, 22.82706727, 7.46659226, 3.72827038
2.57390754, 2.78836870, 3.56370594, 10.99545361, 42.91998369, 27.38156314, 7.33995913, 3.06594194
2.50499501, 3.01247407, 4.39886349, 12.05611878, 41.93268415, 29.79890938, 7.51664819, 3.21325380
2.42383993, 3.03726851, 4.13219070, 10.04987562, 46.79529891, 24.05202694, 10.01498877, 3.35782668
2.67861905, 2.94957624, 3.77160443, 11.95303309, 50.75849683, 19.11020670, 10.38388174, 3.44601219
3.00000000, 3.25576412, 4.33877863, 13.53329228, 48.28975047, 24.05618424, 7.37394060, 3.59165700
2.66926956, 3.20936131, 4.22492603, 12.05093357, 53.26490402, 22.85771205, 5.35256948, 3.00832179
2.32916294, 3.04548847, 3.72827038, 10.84435337, 48.90296515, 17.67837662, 4.65295605, 2.66458252
2.00000000, 2.68328157, 3.39852909, 10.46064052, 37.65368508, 17.18138528, 4.56891672, 2.72488532
1.89076704, 2.38222585, 3.21325380, 9.46440701, 48.75397420, 15.18469624, 4.01870626, 2.64575131
1.96214169, 2.25277607, 3.05777697, 9.42602780, 49.05481628, 12.32781408, 3.91471583, 2.31840462
1.86413519, 2.36643191, 3.10644491, 9.40345681, 43.40449286, 16.49772712, 4.55521679, 2.39791576
1.66583312, 2.71569512, 3.57421320, 10.15997047, 43.19866896, 17.05798933, 4.44971909, 2.28035085
1.84390889, 2.86356421, 3.89871774, 13.80851187, 43.50344814, 17.35943547, 5.10392006, 2.53968502
1.89736660, 2.77938842, 3.82753184, 14.23112785, 47.92102879, 20.21633003, 6.02702248, 2.97069016
1.75356779, 2.47991935, 3.30529878, 10.85241909, 45.64208584, 16.07015868, 4.75920161, 2.41350368
1.98746069, 2.21923410, 3.03726851, 9.59817691, 39.53353007, 12.59761882, 3.22877686, 2.05548048
2.09761770, 2.28582589, 3.07001629, 9.59166305, 34.61322002, 15.98202115, 3.97177542, 2.75227179
1.82345825, 2.10950231, 3.00416378, 10.72263960, 36.87817783, 16.33554407, 3.95600809, 2.62202212
1.94935887, 2.00624026, 3.15039680, 10.55817219, 47.59569308, 15.91304496, 4.32145809, 2.37697286
2.04328167, 2.06760731, 3.03315018, 8.39493895, 44.21849161, 15.28152479, 4.41021541, 2.26384628
2.26384628, 2.64575131, 3.84707681, 10.99317970, 34.17016242, 14.07124728, 4.57711700, 2.67394839
2.35053185, 2.81069386, 4.16833300, 11.94257091, 33.69235818, 14.18978506, 5.04232089, 2.97069016
2.24722051, 2.87228132, 3.75499667, 11.27275477, 50.91193377, 14.28023109, 5.31507291, 2.67394839
2.35053185, 2.92831009, 3.85681216, 11.91847306, 56.58113643, 14.02052068, 5.41987085, 2.65988722
1.98116128, 2.40831892, 3.44963766, 10.54395561, 52.70578716, 17.14861510, 4.81923230, 2.47991935
1.83030052, 2.25831796, 3.05777697, 9.84250984, 49.48762472, 17.60397682, 4.50832563, 2.23606798
1.92353841, 2.46981781, 3.33916157, 11.06119343, 47.84427865, 13.29473580, 4.34453680, 2.15638587
1.87082869, 2.50998008, 3.44601219, 11.37651089, 50.57815734, 17.27642903, 3.90192260, 2.26384628
2.47991935, 2.95381110, 4.19821391, 12.99230542, 46.63126633, 20.83806613, 6.51344763, 3.18590646
2.75227179, 3.24037035, 4.31566913, 13.33697867, 52.13228366, 16.34548867, 7.01427117, 5.21296461
2.89395923, 3.19374388, 4.06201920, 12.42276137, 58.00409468, 17.04626059, 6.08687112, 7.00357052
3.83079626, 4.21010689, 6.32455532, 17.44419674, 59.94122121, 22.77992537, 7.79743548, 9.03188795
4.56618002, 4.98998998, 7.60591875, 19.63033367, 60.35623414, 26.78712377, 10.87887862, 12.88700896
3.92109679, 4.54147553, 6.80441033, 19.46535384, 62.42695732, 31.38869223, 10.99886358, 11.12879149
3.06186218, 4.22788363, 5.66568619, 17.88155474, 64.05524959, 29.29334395, 8.46906134, 5.02244960
3.03315018, 3.63661931, 4.77755167, 13.33791588, 63.24614613, 24.41874280, 7.00000000, 6.22494980
2.88963666, 3.12249900, 4.65295605, 12.38749369, 58.22263306, 20.41935356, 6.44010869, 5.83952053
3.02489669, 3.61247837, 4.91934955, 13.09198228, 46.18928447, 14.90805152, 6.47302093, 5.16236380
2.96226265, 4.19523539, 5.62805473, 14.93485855, 45.85057252, 17.35439426, 7.32802838, 5.28677596
2.60768096, 3.95284708, 5.18652099, 13.42572158, 49.56183007, 18.52160900, 6.95880737, 3.90512484
2.63628527, 3.41686991, 4.87596144, 12.99519142, 48.36967025, 17.15881698, 5.85875413, 4.97242396
2.81069386, 3.64691651, 5.65464411, 16.33783951, 45.23908708, 18.30983342, 7.21456859, 5.71401785
2.79732015, 3.64005494, 5.05470078, 13.58767824, 41.64762898, 21.75028735, 7.91043614, 4.44971909
2.43926218, 3.17411405, 4.12916456, 10.28712788, 46.50618238, 20.48841136, 6.44980620, 3.74833296
2.12720474, 2.57875939, 3.54259792, 10.19068202, 53.32822892, 17.04259370, 5.07937004, 5.62805473
2.35584380, 2.94957624, 3.43147199, 10.79004171, 53.48621318, 18.72431574, 5.83737955, 5.49317759
2.23606798, 3.15832234, 3.64691651, 12.76910334, 44.56091337, 17.54779188, 5.49090157, 2.80624304
2.03100960, 3.09838668, 3.62284419, 12.15935854, 51.03479205, 19.02564059, 4.86569625, 2.77488739
2.14476106, 2.81957444, 3.62973828, 12.52796871, 51.30959949, 22.01874202, 5.27730992, 5.30565736
2.35053185, 2.85482048, 3.96547601, 11.75797602, 43.20677030, 20.14261651, 5.58345771, 5.58345771
2.40312297, 3.11849323, 4.02802681, 10.38749248, 42.58638280, 18.39565166, 5.36656315, 3.58120092
2.31300670, 3.13847097, 4.18927201, 12.11816818, 38.54542774, 18.21400560, 5.88642506, 5.52720544
2.42383993, 3.06186218, 4.26907484, 10.81318639, 43.89903188, 18.20714146, 5.31742419, 5.96238207
2.29128785, 2.85919569, 4.10182886, 8.62409416, 44.15370879, 17.57483997, 4.27784993, 3.77822710
2.54460213, 2.71569512, 3.72827038, 10.26157883, 39.49556937, 17.76654159, 4.86312657, 3.77160443
2.71108834, 2.72029410, 3.77160443, 9.23850637, 47.60593450, 18.69157564, 4.95479566, 3.96547601
2.48495473, 3.27108545, 4.33877863, 11.15683647, 53.77336701, 17.68332548, 6.32653144, 5.56551884
2.29673682, 3.09030743, 4.10791918, 12.43985530, 52.64883664, 17.48070365, 6.31070519, 5.40370243
2.14476106, 2.35053185, 3.36154726, 9.12140340, 52.75580537, 18.37117307, 5.24404424, 2.88097206
2.33987179, 2.82400425, 3.36154726, 12.45993579, 50.10089820, 16.11443452, 5.57225269, 4.01248053
2.13892496, 2.88530761, 3.39852909, 14.65179170, 48.10899084, 17.66069081, 5.11126208, 5.66568619
2.13307290, 2.65047166, 3.73496988, 12.04470838, 44.47414980, 19.84439467, 4.86055552, 5.31507291
2.25277607, 2.75680975, 3.93382765, 10.55461984, 40.35188967, 19.69136867, 4.57165178, 4.16233108
2.08566536, 2.94533530, 3.72491611, 11.00227249, 45.07521492, 20.78160244, 4.91172068, 4.56891672
2.07966343, 2.90688837, 3.80788655, 10.87772954, 51.67107508, 20.85605428, 5.30801281, 5.75325995
2.77938842, 2.95803989, 4.13521463, 12.26070960, 53.38843508, 23.49840420, 5.75325995, 7.55314504
2.97909382, 3.38747694, 4.30987239, 11.81841783, 47.52157405, 22.79254264, 6.38944442, 6.83008053
2.55929678, 3.28252951, 4.16533312, 10.71914176, 42.52969551, 18.22772613, 5.93506529, 4.18927201
2.63628527, 3.02902625, 3.89551024, 12.02913131, 46.16817085, 20.96544777, 6.55934448, 6.23097103
2.78388218, 3.05777697, 4.28952212, 10.69579357, 50.62015409, 21.39567713, 7.10809398, 6.50768776
2.77938842, 3.25576412, 4.63950428, 9.18830779, 47.79304343, 17.98888546, 7.46826620, 4.91934955
2.56904652, 2.80624304, 3.85032466, 8.73212460, 42.27854066, 16.86193939, 6.37965516, 6.61815684
2.44948974, 2.72488532, 3.86975451, 10.89954127, 42.76622499, 17.69745744, 4.15331193, 6.15832770
2.32379001, 2.87228132, 3.72827038, 11.50434700, 43.77385064, 16.74738786, 4.80884602, 5.06211418
1.98116128, 2.55929678, 3.42782730, 10.04738772, 39.37448412, 17.26919222, 5.54301362, 5.34789678
2.48997992, 3.27490458, 4.50832563, 11.99270612, 30.47868107, 18.00486045, 5.50000000, 5.55202666
2.69258240, 3.43874977, 4.72228758, 13.65192294, 41.24681806, 17.78974424, 6.02909612, 5.36656315
2.22485955, 2.81069386, 3.83405790, 12.02393446, 50.43337189, 17.20900927, 6.43234017, 4.33301281
2.49499499, 3.05777697, 3.67763511, 10.66653646, 43.01482303, 17.01690336, 6.33640276, 4.72757866
2.81957444, 3.52136337, 4.64488966, 11.82793304, 40.25232913, 23.46273641, 6.88476579, 5.13565965
2.75680975, 3.26726185, 4.57711700, 11.96975355, 41.66893327, 22.96464674, 6.41287767, 6.11146464
2.53968502, 3.16227766, 4.04351332, 11.95094139, 40.09270507, 20.89796641, 5.93085154, 6.53069675
2.52487623, 3.02489669, 4.04042077, 11.61034022, 49.48964538, 21.14355694, 5.88430115, 5.90127105
2.45458754, 2.66458252, 3.72155881, 10.63249735, 52.33927779, 21.36995555, 5.98331012, 4.63950428
2.23047080, 2.60288302, 3.45325933, 9.27227049, 45.41640673, 18.27908641, 5.50454358, 5.21296461
2.42383993, 2.48495473, 3.73162163, 9.22767576, 42.82522621, 20.33838735, 5.10392006, 5.75325995
2.83725219, 2.65047166, 4.41871022, 10.99317970, 41.80191383, 26.66130154, 6.11146464, 4.91172068
2.69258240, 2.67394839, 4.20713679, 12.75245074, 41.88197703, 24.18832363, 5.59016994, 5.53172667
2.11541958, 2.16794834, 3.15039680, 11.36441815, 46.08578957, 17.81642501, 4.28369000, 4.91426495
2.31840462, 2.51992063, 3.45325933, 11.51195031, 51.68849001, 18.96905375, 5.25832673, 5.11370707
2.50998008, 3.20546408, 4.18031099, 13.86903025, 46.87403332, 19.43000257, 7.03384674, 6.59166140
2.58843582, 3.02902625, 3.84382622, 12.92865035, 38.02729283, 18.08383256, 7.77817459, 6.10327781
2.49499499, 2.90258505, 3.74499666, 11.58770901, 39.96748679, 24.88021302, 7.24051103, 4.59347363
2.65047166, 3.12249900, 4.14125585, 11.36661779, 49.87835202, 27.76463578, 10.02496883, 5.22733202
3.22102468, 3.51069794, 4.62601340, 13.49259056, 47.12138580, 25.74393132, 12.18708333, 6.54025993