44.84528961, 23.43608329, 6.00416522, 7.88035532, 14.02765126, 34.42891227, 34.43653583, 54.78708789
48.33347701, 19.99624965, 4.93457192, 7.22149569, 12.15935854, 34.52752525, 24.60843351, 64.05076112
38.20045811, 23.89456005, 4.34165867, 5.83095189, 15.07398421, 27.96336890, 19.50384577, 52.07446591
24.73509652, 27.86978651, 4.89131884, 5.92452530, 20.92247595, 24.45710531, 21.42428529, 31.61763748
21.64486082, 38.35426964, 5.98122061, 8.26891770, 24.94594155, 29.68038073, 21.39450864, 27.92534691
22.01533556, 40.61496030, 6.15426681, 9.30859818, 27.16845597, 30.28324619, 28.79322837, 19.23733350
20.06053339, 28.02855687, 5.06705042, 7.78941590, 28.17889281, 20.70446812, 29.82113345, 16.35619149
22.49833327, 27.16523514, 4.65564174, 7.47495819, 26.35336791, 19.57357913, 21.85920859, 21.73303936
26.13379039, 25.55435384, 4.73814310, 8.62409416, 26.00000000, 24.64345755, 19.97936435, 27.74076423
25.87131616, 12.12641744, 3.56721180, 8.68331734, 22.34278407, 28.60943900, 21.28085995, 29.69132870
23.44408241, 12.03536456, 3.13049517, 6.94082128, 13.92749080, 26.45042533, 21.94310826, 31.25739912
26.54100601, 11.62862847, 3.45687720, 5.35957088, 10.51784198, 23.58442283, 23.89089785, 38.13430214
26.46507132, 8.04363102, 2.69722079, 5.49090157, 9.66953980, 27.96560387, 29.73508029, 34.84537272
21.04994062, 6.76387463, 2.55440795, 5.60802996, 9.41142922, 26.17154944, 24.77296914, 20.90693665
16.84562258, 6.22896460, 2.71108834, 5.97285526, 18.11008007, 28.76629973, 21.79334761, 16.18332475
12.11300954, 4.61248306, 2.12720474, 4.91934955, 18.80026596, 33.78054174, 26.13952945, 16.21881623
12.51798706, 5.03984127, 2.23047080, 3.82753184, 11.65439831, 29.15004288, 23.46220365, 15.83192976
11.71110584, 4.53321078, 2.43926218, 4.66904701, 13.01633589, 28.13316548, 22.36347469, 14.32567625
13.00000000, 3.48209707, 2.61725047, 4.86826458, 13.18237460, 32.31098884, 23.47871376, 14.31258188
12.44789139, 4.12613621, 2.66458252, 4.13823634, 14.01517035, 30.04995840, 21.71289939, 16.67483133
10.63954886, 3.93700394, 2.21923410, 3.69120577, 13.54252561, 30.24359436, 19.48268462, 16.00781059
8.61103943, 2.70647372, 2.21359436, 4.55247186, 10.91787525, 30.06700850, 24.25798837, 11.99062134
9.31933474, 3.43147199, 2.76586334, 4.59075157, 12.66195088, 31.29217154, 29.19631826, 11.07361730
9.49341877, 3.64005494, 3.00000000, 3.90512484, 14.68757979, 30.78757866, 31.28178384, 10.29320164
8.38898087, 3.49284984, 3.18590646, 4.37035468, 14.43520003, 23.56374334, 28.19042391, 11.30928822
8.01405016, 3.26343377, 2.78388218, 4.28369000, 11.17698528, 26.46884962, 27.75157653, 10.25426740
7.59440584, 2.61247010, 1.80969611, 3.00000000, 10.03742995, 29.44486373, 29.01335899, 8.37406711
8.26135582, 2.70185122, 2.32379001, 2.95381110, 12.48999600, 29.60320929, 22.61581305, 10.67590746
7.31266025, 2.61247010, 2.53968502, 4.24852916, 13.37628499, 33.41743557, 22.18050946, 15.44991909
7.83741029, 2.82400425, 2.71569512, 6.78785680, 13.01537552, 31.23979833, 25.09980080, 16.20185175
7.47161295, 2.84165445, 2.81069386, 6.58596994, 11.87855210, 23.31255027, 25.17737079, 12.44789139
7.10105626, 3.29772649, 2.39269722, 3.51069794, 10.05857843, 23.83117706, 21.50232546, 13.68301867
6.77310859, 3.37268439, 2.39791576, 3.66060104, 11.87855210, 24.96597685, 17.92344833, 12.73479486
5.93927605, 3.33916157, 3.08220700, 5.48178803, 14.73176839, 32.09945482, 23.80861189, 9.60078122
7.27495704, 3.66401419, 3.37638860, 6.89927532, 13.56926675, 33.16775543, 27.23692347, 10.29441596
7.15367039, 3.20936131, 2.84165445, 6.38357267, 13.46012630, 30.97660407, 24.99449939, 13.93646297
7.71362431, 3.46049129, 2.91547595, 4.63680925, 16.61550481, 31.03465805, 21.31196847, 17.85287092
11.13328343, 4.06509532, 3.27490458, 4.83218377, 18.71363140, 31.51071246, 23.55631550, 25.26806285
16.56275943, 9.02219485, 18.10662862, 12.51698846, 21.40852634, 36.07596153, 23.38803113, 27.87068352
16.24730747, 16.96540598, 34.15516066, 17.94575159, 22.79144576, 34.48115427, 19.91858429, 26.27260931
15.09138827, 21.70426225, 47.66628788, 26.96757312, 24.63280333, 35.54011818, 18.48107140, 23.51010421
17.66988964, 19.80530232, 43.35925507, 26.25833201, 22.07600507, 38.54510345, 18.69157564, 18.05131574
17.56986056, 24.01978351, 45.49780214, 29.69932659, 23.84009228, 37.71306140, 28.51929172, 27.46088127
15.63089889, 28.45522799, 58.36116003, 34.63524217, 28.53506615, 35.93118423, 29.72330735, 33.92454863
13.31634334, 22.77663276, 51.35124147, 25.06292082, 25.65443431, 33.75018518, 21.31314149, 27.04348350
11.15683647, 12.54093298, 30.45734723, 14.37880384, 19.78509540, 29.86595051, 15.72180015, 15.13274595
9.35815153, 4.74341649, 12.75539102, 8.74785688, 15.29542415, 24.80524138, 14.13771552, 10.84435337
10.89380558, 7.01605302, 18.23115465, 8.59941858, 16.66133248, 28.32887220, 15.72815946, 15.15173257
10.48451239, 7.56637298, 19.72435043, 8.64869932, 15.38262006, 32.65463214, 15.95070531, 16.42026187
9.05814551, 5.43139025, 14.42567156, 8.38301855, 12.84036604, 31.82216209, 15.77339532, 19.43128920
8.10709566, 4.73814310, 13.58215741, 8.00156235, 14.03923075, 30.91722821, 13.24764130, 18.92220917
8.43059903, 4.77755167, 12.42577965, 7.20243015, 14.86859106, 28.49166545, 11.65975986, 18.75233319
9.37149935, 3.44963766, 7.44815413, 5.23450093, 14.00446357, 30.37309665, 13.82117940, 22.26993489
8.45428885, 3.04138127, 5.19133894, 5.10636857, 18.13491108, 36.11578602, 14.20563269, 22.70517562
7.20590036, 2.92831009, 3.42052628, 5.45893763, 17.77287259, 34.78756962, 14.46893223, 19.01052340
7.41788380, 2.64575131, 2.33987179, 5.80086200, 14.33875866, 33.58943286, 15.98827696, 12.77791063
9.53677094, 2.72029410, 3.16622804, 6.55743852, 16.36994197, 38.52077362, 14.53100134, 13.04511403
8.50000000, 3.01247407, 4.01559460, 6.29483916, 16.78317610, 38.85711003, 12.97497592, 13.58767824
6.30476011, 2.64575131, 3.34290293, 5.47265932, 15.28643189, 34.50000000, 12.43684043, 11.83321596
7.41956872, 2.68793601, 2.30217289, 5.22254727, 12.66195088, 28.93527259, 15.97654531, 11.41818725
7.47663026, 2.74317334, 2.45967478, 6.07453702, 11.50326041, 20.51706607, 16.97277231, 12.13053997
6.56886596, 2.19658826, 2.28035085, 6.17251974, 12.84133949, 24.38339599, 19.27563229, 14.70714112
7.45654075, 2.30217289, 2.16794834, 5.90338886, 15.67083278, 32.85802794, 19.08467972, 15.85086748
7.72657751, 2.60288302, 2.48997992, 6.42456224, 16.93369422, 41.11386627, 15.25204904, 11.51846344
9.90706818, 2.93683503, 3.04959014, 7.24568837, 15.69155824, 47.09723983, 16.15781545, 16.69206398
11.24388723, 4.05585996, 7.31778655, 8.48233458, 18.77232005, 40.95454798, 16.23114290, 23.24973118
13.94363654, 7.86606636, 14.96328841, 9.86787718, 20.89377898, 32.32104578, 18.05823912, 25.56315708
13.26178721, 12.03744159, 25.34856998, 13.63909821, 20.09664151, 34.71130940, 21.81112102, 27.83028925
13.27215130, 17.55348968, 25.51176199, 14.80793706, 21.73764017, 36.54688769, 20.36295656, 32.63433774
15.63169856, 18.91097565, 18.24897257, 13.40615530, 29.70353514, 29.95872160, 15.31910572, 31.20176277
18.07000277, 17.92623775, 15.46609194, 12.20040983, 31.53014431, 24.80725700, 17.91856579, 29.37941456
19.83872476, 18.17346967, 13.39589489, 13.08338641, 26.73247089, 25.40669203, 21.98977035, 31.85827993
20.85245789, 22.45606822, 10.25426740, 12.28820573, 26.25690385, 22.89377645, 24.29866251, 29.86469488
18.35415484, 21.49127730, 6.03324125, 8.19298480, 25.22796068, 20.88420456, 28.04995544, 27.21672280
19.81539805, 18.64135188, 13.60698350, 9.34879671, 23.25456944, 32.09166558, 27.27407194, 23.90815760
21.90719060, 20.18601001, 18.06100772, 9.92849435, 24.43562972, 38.69819117, 21.87578570, 19.12066944
20.04869073, 17.23006094, 18.82086608, 10.83628165, 26.10076627, 34.27170845, 22.95266869, 22.64398375
25.49950980, 15.85481000, 16.19336284, 12.09235296, 22.79473623, 34.27681432, 27.27911289, 31.05116745
28.72411879, 16.94181218, 11.27164584, 10.25548634, 18.04923821, 31.73720215, 29.58166662, 33.82011236
30.95601719, 15.75277753, 10.43312034, 9.84377976, 16.94254999, 29.19075196, 25.80358502, 33.37326775
35.61741147, 17.84096410, 8.80056816, 11.31481330, 16.51135973, 31.03707460, 20.27251834, 36.78416779
30.62760193, 17.45923824, 7.67137537, 9.68762097, 18.31256399, 30.33850688, 18.47227652, 37.24546952
20.44810505, 15.64528683, 10.99659038, 8.09938269, 19.93426698, 27.12701605, 17.73132821, 28.16247503
30.42285325, 20.21200139, 12.54491929, 9.06090503, 21.70944495, 26.42158209, 19.52754465, 33.64074910
40.63526793, 23.02118589, 12.57875193, 9.16651515, 21.39859808, 36.63707139, 20.31563437, 39.77059215
34.48949115, 18.87988347, 12.53594831, 9.75192289, 21.17132495, 37.17391559, 22.49166512, 30.89336498
22.43880567, 12.96919427, 12.59265659, 11.13777357, 21.51627291, 31.84689938, 21.05706532, 26.98471790
20.61431541, 14.01962910, 11.39736812, 11.37321415, 19.06305327, 32.07686082, 17.76865217, 23.88723508
15.97028491, 11.50000000, 7.91833316, 10.05484958, 14.59708875, 37.72399767, 14.40486029, 16.41493223
14.92564906, 8.65014451, 7.79583222, 7.72657751, 10.10569147, 33.49402932, 7.89145107, 16.02029962
16.29953987, 8.11480129, 8.81901355, 7.81824789, 12.34605200, 26.23213678, 7.36376263, 15.38099477
17.45780628, 7.82304289, 10.04987562, 8.80056816, 17.34358671, 29.58293427, 11.85748709, 17.53353929
22.78925185, 23.27391243, 19.46728024, 12.17374223, 15.54589978, 27.38110662, 16.84339633, 18.53172955
25.98461083, 34.43726180, 41.92552922, 21.04934678, 22.47721068, 35.48873061, 18.88716495, 19.73068676
21.69389315, 30.77377130, 55.69941651, 27.89175505, 28.18066713, 42.32847741, 22.80789337, 20.92247595
18.23046900, 21.25852770, 52.99551868, 26.40123103, 22.63514966, 35.99513856, 21.86835613, 23.31201407
17.96385259, 18.96773576, 41.46203082, 20.48108884, 18.00624892, 30.24152774, 19.75158222, 24.15005176
19.79141228, 21.41027791, 33.12061292, 15.73928207, 14.90888997, 40.61095911, 22.41483884, 23.48350485
21.13941816, 20.83866598, 26.23166026, 13.21079104, 11.05101805, 40.04278961, 20.16494483, 22.77498628
16.52422464, 16.26729848, 17.59119098, 12.27904719, 9.26147936, 33.02953224, 20.59247435, 19.95119044
15.13191990, 17.94644812, 15.95854003, 12.04989627, 11.27608088, 42.71650735, 21.18785029, 19.11936191
24.08578419, 28.81752939, 13.11487705, 11.36661779, 13.27780102, 41.52619655, 15.91304496, 20.62886327
23.51116756, 26.74415824, 11.89747872, 8.04363102, 12.70236199, 32.82262939, 14.09787218, 20.77197631
17.60610690, 12.45692578, 10.67824892, 7.16763559, 11.12991464, 30.05370194, 16.44004258, 21.32604042
17.25688268, 11.33357843, 7.58452372, 7.61084752, 10.78656572, 26.50801766, 14.57909462, 19.12393788
13.74408964, 12.08097678, 6.64642761, 9.12003289, 11.75265927, 29.43594741, 15.26269963, 16.67558095
12.28718845, 10.79120012, 6.97853853, 8.69051207, 12.67280553, 33.05298776, 15.70350279, 16.71974880
14.18273598, 10.53090689, 7.13091859, 7.26291952, 11.77178831, 26.58806123, 15.11042686, 18.09765178
16.92557237, 9.39015442, 5.66347950, 6.44786786, 10.51189802, 19.47434209, 14.85176757, 18.46280044
19.96371709, 5.96866819, 4.02802681, 5.94138031, 13.44804819, 24.86915761, 11.87855210, 18.43230859
18.65140745, 4.92442890, 3.56721180, 5.54526825, 15.44101681, 30.10813843, 10.28712788, 17.59332260
12.87633488, 4.30116263, 4.02181551, 7.72495955, 14.68672870, 30.43764117, 12.56483187, 16.52876281
15.86348007, 5.24880939, 4.39033028, 8.73641803, 13.09961832, 25.54407955, 13.09389171, 18.31870629
16.86416319, 5.57225269, 4.11096096, 7.84219357, 11.20267825, 25.22548315, 9.94484791, 15.53463871
15.35089574, 4.93710441, 4.81404196, 7.25947657, 11.24722188, 27.22131518, 14.01606221, 16.72049640
15.04243996, 4.34453680, 4.70903387, 6.26298651, 12.28006515, 22.65722843, 13.80941708, 18.04923821
12.80136711, 3.64691651, 3.49284984, 6.30079360, 13.91851285, 21.48546020, 10.66067540, 16.44460398
13.38562662, 3.35037311, 3.39484904, 6.74166152, 12.62834114, 28.08513842, 14.58852289, 19.92297669
14.54046079, 3.25576412, 3.63661931, 6.83008053, 8.89662857, 27.08551273, 14.32567625, 19.55057544
13.64093105, 3.20936131, 3.60901649, 6.13799642, 12.53495114, 24.51530134, 10.65246450, 17.00073528
11.75584961, 2.92403830, 3.33916157, 5.69649015, 14.49137675, 23.04994577, 13.91851285, 18.58830277
9.28574176, 2.92831009, 3.63318042, 5.59464029, 10.71914176, 19.19570264, 13.03361040, 15.71941475
8.65881054, 3.04138127, 4.15632049, 7.48164420, 10.70046728, 20.27375150, 8.63712915, 12.31056457
10.42113238, 3.08625987, 3.68442669, 8.29156198, 12.26070960, 19.93113143, 13.51850583, 17.55206541
12.99422949, 3.33541602, 3.41686991, 7.15541753, 11.82581921, 16.75783399, 17.47355144, 27.99553536
12.63823564, 3.26343377, 3.18982758, 7.29725976, 13.92390032, 17.82133553, 15.75674459, 25.23687778
10.90298124, 3.18590646, 2.98747385, 8.63857627, 13.37348122, 22.69195893, 15.42805885, 14.97330959
10.76568623, 3.03315018, 3.35037311, 8.30361367, 13.73317152, 24.51632109, 15.15833104, 16.53027525
15.71702898, 3.92428337, 3.60901649, 8.73069299, 15.89024858, 24.37262809, 12.88700896, 20.72136579
15.57000321, 4.28952212, 4.62060602, 10.07223908, 16.27805271, 28.67620965, 16.22806211, 22.26825094
13.67662239, 3.98434436, 4.77231600, 8.86566410, 15.77498019, 28.03792075, 19.40747279, 22.38470460
13.21930407, 4.31566913, 4.55796007, 10.19803903, 20.06053339, 26.33059057, 18.77232005, 22.37409216
10.90298124, 4.46934000, 6.46142399, 10.07844234, 22.54495509, 31.60933406, 17.50071427, 19.79456996
11.08828210, 3.92746738, 6.23698645, 8.04984472, 21.26146749, 29.64160927, 17.09166464, 19.30025907
10.94646062, 3.66060104, 6.30079360, 9.43000530, 18.89312044, 21.68294260, 14.05346932, 20.68272226
13.39309524, 4.07430976, 6.06011551, 10.55698821, 19.94116346, 23.95829710, 12.88215820, 22.60199106
12.82672990, 3.30907842, 3.07001629, 9.40877250, 26.49952830, 25.10328664, 12.20245877, 27.08412819
12.37537878, 3.17017350, 3.05368630, 8.76213444, 25.22399651, 24.77044610, 12.21269831, 30.08404893
12.28922292, 3.81772183, 3.69797242, 9.58644877, 20.70567555, 26.88586989, 18.06377591, 25.60078124
10.01124368, 3.42782730, 3.90512484, 8.91487521, 22.95321328, 26.93557128, 23.01847084, 18.69291310
9.80688534, 3.28633535, 3.61939221, 9.12551368, 20.72136579, 27.77948884, 18.82617858, 20.63007513
11.11755369, 3.62284419, 3.12649964, 9.83869910, 16.28265949, 29.88519700, 14.54991409, 21.77211519
13.86722755, 3.93382765, 3.32791226, 9.18286448, 15.65087857, 32.74942748, 16.06471288, 20.03621721
14.14125171, 3.94968353, 3.59861084, 8.16241386, 14.23990871, 33.82454730, 14.80287134, 20.47864742
12.89670501, 3.81444622, 3.37638860, 8.04984472, 12.31157991, 35.62478070, 13.72953022, 26.09741366
14.63301063, 3.49284984, 2.77488739, 7.60263112, 15.69633715, 30.00124997, 11.97497390, 25.62469512
14.36836804, 3.45325933, 2.85482048, 7.93095202, 16.99264547, 20.82726578, 10.52021863, 17.37670855
10.81665383, 3.73831513, 3.83731677, 9.31933474, 14.35966573, 20.20767181, 11.98853619, 16.80401738
10.02870879, 3.64691651, 3.77822710, 9.76857206, 16.28419479, 37.40220582, 21.63966266, 21.96645169
13.55544171, 3.87943295, 3.54964787, 7.43975806, 17.94993036, 42.70743495, 23.62943080, 22.36347469
12.99326749, 3.90192260, 3.82426464, 7.56637298, 16.17250754, 31.66464906, 16.71974880, 19.33714043
8.72782905, 3.17411405, 3.13448560, 7.96241169, 12.91123542, 32.66994031, 16.19336284, 20.15316352
9.32603882, 2.61725047, 1.98116128, 6.12168278, 14.21354987, 32.12047634, 15.97732769, 19.33714043
13.48888431, 7.87876894, 4.73022198, 7.07636913, 15.15585695, 27.85543035, 12.70924860, 21.51685386
15.76388277, 9.27496631, 6.95161852, 6.62004532, 13.51758114, 26.12278699, 12.65997630, 21.90604939
14.15185500, 6.59734795, 9.11729126, 6.46915760, 12.73479486, 24.31768903, 12.41269511, 23.04397969
14.95911094, 5.36190265, 10.67122299, 6.83008053, 12.39758041, 25.03697266, 12.71318214, 27.94995528
17.91717054, 6.65206735, 12.13466110, 6.97316284, 13.06043644, 29.49660997, 14.37532608, 26.93325082
16.43167673, 7.67463354, 15.56518551, 8.81334216, 13.66107609, 35.05139084, 18.61182420, 21.94025980
12.94121324, 6.22093241, 13.65924595, 9.05676543, 14.14567072, 28.88728094, 17.70381315, 19.98561983
11.20602517, 5.63471383, 8.60232527, 9.49210198, 15.92717803, 20.27190174, 12.89282746, 19.39780915
12.06544653, 5.48406783, 7.75564311, 9.26687650, 14.35095816, 22.94504304, 19.06502033, 24.55962133
14.77328670, 4.69840398, 8.32316046, 7.65343060, 12.61942946, 24.89427645, 19.67485705, 24.72144818
15.92011306, 4.37035468, 9.79285454, 7.98122798, 13.26461458, 23.57965225, 13.48888431, 20.99404678
12.42175511, 3.57421320, 10.15135459, 7.75403121, 14.62788433, 22.72003521, 13.46940979, 21.81685129
11.92057046, 3.75499667, 10.96357606, 8.33066624, 13.94363654, 26.01730194, 13.70583817, 25.37567733
15.15833104, 4.28952212, 9.53152664, 9.26147936, 11.52822623, 25.32686321, 16.50303002, 25.09731061
15.12200384, 4.51940262, 6.86476511, 8.78208404, 12.46595363, 31.70961999, 17.63235662, 21.67717694
13.20700572, 3.80788655, 4.88620507, 7.17983287, 12.38345671, 35.65739755, 17.75457687, 25.28734862
14.30821442, 3.39484904, 3.53906767, 7.64198927, 12.24438647, 28.68449058, 18.86862475, 26.24880950
15.07481343, 3.79143772, 4.09572948, 8.03585714, 10.53921249, 18.90238080, 13.99374860, 23.36610793
14.13064047, 3.68781778, 3.46410162, 5.54977477, 6.89202438, 14.97414438, 9.89949494, 21.29906101
16.44536409, 4.62331050, 6.21892274, 6.76387463, 13.13487724, 23.72972819, 16.52271164, 24.32282878
18.33780249, 4.97493719, 8.03741252, 7.76369757, 14.29685280, 25.01599488, 23.21314283, 23.50850910
16.33401359, 3.98120585, 6.28887907, 7.24913788, 12.55487953, 23.66167788, 20.37768387, 18.16177304
12.48098554, 3.32791226, 3.66060104, 5.93717104, 10.73778376, 21.64890297, 12.35414910, 16.76678264
12.51399217, 3.73496988, 2.51495527, 4.48887514, 8.67899764, 21.07071427, 12.14701609, 17.33998270
11.56719499, 3.72155881, 2.29673682, 5.24404424, 10.98294132, 30.04205386, 21.97214145, 15.69952229
12.58769240, 4.07124060, 1.96850197, 6.10941896, 10.51189802, 35.49894365, 24.04942827, 13.53421590
14.23376268, 4.57165178, 3.19765539, 8.67035178, 9.59035974, 30.72173498, 16.55445559, 16.26499308
13.14343943, 3.95600809, 4.76969601, 8.06845710, 8.15015337, 23.06187330, 16.31946690, 17.70804902
15.71861953, 3.83731677, 4.79843725, 5.39675829, 10.53684013, 28.50087718, 19.33132173, 19.15398131
14.87279395, 3.72491611, 5.09165985, 6.17656863, 12.68365089, 34.74298490, 17.50642739, 18.44112253
11.87960437, 3.42782730, 5.48178803, 6.08481717, 11.37541208, 34.21768549, 19.45122104, 14.26183719
19.99874996, 3.48926926, 8.13172798, 6.81542368, 10.81318639, 34.63704664, 26.24166534, 16.63129580
21.68985938, 4.25734659, 12.96437426, 7.53491871, 10.10692832, 32.18850727, 30.53195048, 18.17965896
16.96393233, 4.04969135, 11.97706141, 6.39140047, 9.32469839, 26.89981413, 27.35964181, 19.20026041
17.22353042, 3.18590646, 8.29909634, 5.98957428, 9.28439551, 25.15949125, 19.54098258, 19.04927820
17.71369527, 3.65718471, 9.79413090, 6.70447612, 7.81664890, 25.77498788, 17.69039287, 21.26087957
16.63655613, 4.07430976, 10.03992032, 8.38301855, 8.39196044, 30.44133703, 18.65274779, 23.95881884
14.36662800, 4.43565102, 9.82344135, 8.07155499, 11.08828210, 30.16330552, 19.40231945, 22.66164160
11.98540779, 4.00000000, 9.54986911, 5.65243310, 11.50869237, 24.36595986, 18.35143046, 20.04494949
10.95102735, 3.07408523, 9.39813811, 5.13078941, 10.79235841, 31.68911485, 20.56574822, 18.51485890
9.86280893, 3.32039154, 10.29320164, 6.31862327, 9.58253620, 36.54175694, 21.97157254, 17.75176048
10.82935825, 4.45252737, 13.42572158, 8.53522115, 9.49210198, 27.26627954, 20.15316352, 17.30245647
11.44115379, 4.20416460, 12.41068088, 9.01249133, 10.64776972, 32.27770128, 22.08789261, 18.58561272
11.54447920, 3.65718471, 7.89145107, 6.67270560, 10.62779375, 39.59135007, 22.58428657, 19.29766825
10.91214919, 3.55668385, 6.46335826, 4.51940262, 10.76220238, 33.63777638, 17.86057110, 16.24192107
9.40744386, 3.30151480, 8.16394512, 6.50192279, 9.71596624, 25.47645972, 16.26653005, 12.53694540
10.19313494, 3.69797242, 9.56948274, 6.49615271, 8.60668345, 28.14871223, 19.63542717, 17.11797301
11.19374826, 3.99061399, 10.55106630, 6.59355746, 10.25304833, 32.83671725, 22.86919325, 16.29186914
13.87353596, 4.12613621, 9.98624053, 8.01872808, 11.60710989, 29.12215651, 20.95113362, 17.47569741
14.48792601, 5.16236380, 7.89461842, 8.06535802, 11.89852932, 28.26172323, 15.52981004, 22.42264480
14.37445651, 9.01387819, 7.72981242, 7.19548470, 13.35758212, 31.40222922, 16.26115002, 23.15329350
13.47497681, 10.83282050, 7.29554659, 6.79889697, 16.20108021, 32.10802080, 15.94129857, 24.78255435
11.91847306, 8.56883889, 6.63701740, 6.49615271, 15.67003510, 26.97869530, 14.20651259, 22.03916968
14.93820605, 8.93308457, 5.43139025, 5.52268051, 13.70127731, 25.27943828, 15.13522382, 21.98408515
22.33942703, 10.93389226, 6.38553052, 6.30277717, 12.72792206, 27.73265224, 14.55163221, 31.80487384
22.75466985, 10.70513895, 6.59545298, 6.37181293, 12.79062156, 24.84652893, 18.62927803, 31.90807108
17.76935564, 9.28170243, 8.08084154, 6.86112236, 14.84840059, 28.43061730, 20.04370225, 24.73509652
17.64723774, 12.03224834, 9.08432716, 7.74273853, 16.27037185, 33.25883341, 14.34224529, 25.68608573
22.94013949, 18.84210710, 16.93812268, 8.76783896, 18.39836949, 34.55141097, 15.04825571, 31.70804314
23.29592239, 20.25709752, 22.47053626, 10.54869660, 16.73693520, 31.84493680, 19.54162225, 29.92072860
17.58763770, 14.81468866, 19.73575436, 11.28273017, 12.77791063, 23.42808144, 21.67717694, 25.01349636
18.77498336, 9.68374927, 17.86337034, 10.58890929, 13.67296603, 26.57019006, 23.00815073, 25.23142881
21.27498531, 10.80393447, 16.48939053, 8.69913789, 14.54218003, 28.77281703, 18.54184457, 30.18484719
19.47498395, 12.01457448, 10.27375297, 6.70447612, 14.44385683, 22.10090496, 14.00624861, 30.26177457
19.83242295, 9.79157801, 8.73498712, 6.54025993, 12.55288811, 19.27822606, 19.78572718, 29.79177739
18.92419087, 6.29483916, 12.38749369, 7.00178549, 10.70513895, 17.46639631, 22.25926773, 29.66816476
16.85378296, 6.24299608, 13.68941197, 6.89202438, 11.48694912, 17.83675980, 22.45272812, 25.63786263
18.24623249, 6.45561771, 14.42653805, 7.41451280, 12.68956264, 19.60102038, 20.62886327, 27.05919437
16.85823241, 6.60113627, 14.52067492, 7.94827025, 15.94521872, 25.53380113, 14.80287134, 25.32834381
17.98819057, 7.56637298, 10.94874422, 7.78941590, 19.43836413, 35.91134918, 12.77106104, 29.96205934
16.78838884, 7.39594483, 10.24573082, 10.08340220, 19.33326149, 35.96317561, 15.97732769, 30.22540322
16.17714437, 7.80224327, 10.90183471, 10.53328059, 15.77577256, 27.35324478, 19.70913494, 24.84149754
17.03452377, 14.98415830, 9.83107319, 8.62699252, 14.29248054, 24.35621071, 17.24093965, 25.74732996
15.79082012, 17.28438602, 10.48689659, 10.99886358, 16.21881623, 21.83689538, 12.75343091, 34.63199388
31.96091363, 29.77540932, 10.97838786, 13.91132632, 19.08140456, 25.39094327, 14.59366301, 42.99796507
44.76885078, 30.07074991, 9.37816613, 12.26070960, 20.96783251, 24.53823547, 16.76678264, 43.79954338
48.80471289, 13.36600165, 6.69141241, 9.53414915, 19.12263057, 19.29572492, 16.64406801, 55.76490832
46.31819297, 20.35251827, 8.22800097, 8.84590301, 15.80031645, 20.00374965, 13.25895924, 55.38659585
36.00798523, 23.86419913, 9.58384057, 7.60920495, 15.11787022, 19.36620768, 13.32760294, 35.94301045
24.90933560, 16.60271062, 10.35374328, 7.55810823, 16.29647201, 24.02186504, 21.30492901, 30.01874414
18.91163663, 12.39758041, 9.35815153, 7.41451280, 17.11870322, 21.89463405, 19.81539805, 33.71275723
18.90568698, 12.23110788, 7.17112265, 7.59605161, 15.74166446, 20.07485990, 15.50483795, 29.23354238
25.52596717, 13.04894632, 12.12744821, 8.01716908, 17.31689926, 26.20496136, 20.38381711, 28.61817604
32.05074102, 11.99166377, 12.52297888, 7.45318724, 17.35655496, 29.60954238, 20.35558891, 42.40165091
26.52640194, 8.29909634, 8.46610891, 8.26891770, 15.30604456, 27.05827045, 18.25513626, 41.23863480
18.81223006, 9.31396801, 7.47495819, 9.04018805, 13.81032223, 24.96397404, 15.81613101, 34.91740254
22.47721068, 8.71779789, 7.13442359, 7.54486580, 11.93524193, 24.62214450, 14.00981799, 37.42258676
19.89409460, 5.49317759, 6.47688197, 6.43039657, 12.60456267, 19.37459677, 12.77399703, 29.49406720
17.24383948, 5.21536192, 3.42052628, 6.91013748, 13.49629579, 21.29495245, 11.04875559, 22.68038800
16.10434724, 4.59619408, 3.65034245, 8.21735967, 13.94991039, 23.96038397, 10.15135459, 24.47192269
18.96707674, 6.21490145, 3.80460248, 8.37854403, 13.36132478, 22.08223268, 9.51708989, 27.84869835
21.12285492, 6.73238442, 3.35037311, 7.71038261, 12.26478699, 22.10995251, 9.81835017, 27.18823275
16.74365551, 5.21775814, 4.21604080, 7.88194139, 13.52959719, 21.17545749, 11.43896848, 23.33398809
16.54463659, 4.67707173, 4.53045252, 7.09929574, 14.77836256, 16.92040189, 10.72030783, 24.51836047
15.79556900, 4.03732585, 3.95600809, 7.04450140, 13.86091628, 25.67537731, 11.19598142, 20.52620277
13.16434579, 3.94334883, 3.61939221, 7.45318724, 14.21882555, 27.87606500, 11.24055159, 24.04319030
15.08310313, 4.10182886, 3.42052628, 6.89021045, 15.17810924, 18.92286976, 8.30812855, 29.62895543
19.98124120, 4.26028168, 3.53199660, 7.40776620, 13.97855500, 18.13215376, 8.86002257, 31.73129370
20.21323824, 4.45813863, 3.71146871, 8.02963262, 11.54989177, 18.37457483, 9.35547968, 29.78884019
17.55562588, 4.30406784, 3.46770818, 8.06380803, 12.94700738, 18.99934209, 7.96868873, 27.94503534
16.44232344, 4.01870626, 3.42052628, 8.08238826, 14.22058367, 20.29100786, 7.92937576, 31.85200151
16.76529153, 3.70135110, 3.32415403, 6.53643634, 14.32742126, 22.70517562, 8.18229797, 32.77499047
15.96558799, 3.51781182, 4.43565102, 5.36190265, 11.91532626, 22.21823575, 7.67626211, 28.31872172
13.45176568, 3.49642675, 6.26897121, 5.92241505, 10.13286731, 18.86663722, 9.18558654, 24.32591211
12.70924860, 3.66401419, 8.74642784, 7.11336770, 12.10784869, 26.39554887, 9.53283798, 23.58866253
18.56811784, 4.11096096, 9.33675533, 8.50441062, 11.90903019, 26.85423616, 8.03896760, 30.40518048
18.66145761, 3.83731677, 8.21279490, 8.48822714, 9.78902447, 18.99868416, 6.59166140, 28.01562064
14.20387271, 5.31977443, 10.45346832, 7.40270221, 8.66169729, 16.87675917, 7.36036684, 20.96664017
16.86564556, 6.05392435, 13.62350909, 6.54790043, 9.25607908, 16.22498074, 7.67951821, 29.42278029
15.69076161, 4.91934955, 12.17476899, 7.18157364, 11.57691669, 19.92987707, 6.76202632, 28.22188867
14.02676014, 4.38178046, 9.07469008, 6.69514750, 12.06441047, 20.44565969, 7.52828002, 22.32879307
15.22251622, 4.69574275, 8.78635305, 5.71839138, 10.78772451, 22.50999778, 10.00624805, 19.67993902
15.98984052, 4.72493386, 11.69615321, 6.06630036, 11.18369349, 22.62354968, 9.96242942, 21.54704156
16.20416613, 4.15932687, 12.42577965, 7.23532999, 11.50977845, 20.92725496, 8.15628592, 26.87331390
17.02351315, 4.18628714, 10.15504801, 7.31778655, 12.44688716, 22.35508891, 8.06070717, 25.84279397
16.24884611, 4.25440948, 11.66404733, 7.18853253, 11.80783638, 19.33326149, 7.69740216, 18.62994901
14.10053190, 4.18031099, 12.00416594, 8.76070773, 10.22496944, 17.07556734, 7.28697468, 20.01436984
14.62361105, 4.59891292, 10.54751155, 8.51762878, 8.98053451, 15.76071064, 7.21976454, 25.97931870
15.30767781, 4.57438520, 11.20044642, 7.33825592, 8.93448376, 20.41200627, 7.41451280, 24.95245479
14.61677119, 5.29622507, 12.78084504, 6.09302880, 9.42470159, 21.35005855, 10.43431838, 25.18580950
14.17568341, 5.74238626, 14.14567072, 6.69888050, 9.54463200, 18.69224438, 10.67941946, 25.02448801
13.29285522, 4.98246927, 12.36426302, 7.01070610, 10.19558728, 18.82750647, 7.47495819, 21.29847412
12.95086870, 4.74605099, 10.27496959, 6.61626783, 10.88002757, 19.81665966, 7.09577339, 20.60218435
12.86176504, 4.65564174, 10.92703070, 7.77656737, 13.19090596, 23.39123768, 8.70919055, 18.28113782
10.58418632, 3.92746738, 9.49605181, 8.71349528, 12.56582667, 20.92128103, 8.90926484, 15.43939766
10.49166336, 4.06201920, 11.02383781, 9.19782583, 11.01816682, 19.81918263, 7.87559522, 18.78762891
13.21079104, 3.99687378, 10.06230590, 8.23559348, 11.36881700, 21.75201140, 7.24741333, 19.86579976
14.40746334, 3.34664011, 6.79153885, 8.02184517, 10.37906547, 24.27807653, 8.01405016, 19.78067238
16.42406771, 3.58120092, 8.39196044, 8.65881054, 10.09331462, 24.05566461, 8.81192374, 23.76026094
16.42330661, 3.89230009, 9.15832954, 7.59605161, 10.98294132, 23.66854453, 7.69415362, 22.21485989
12.96823041, 3.80788655, 8.46315544, 5.95189046, 12.30751803, 23.01955690, 8.53961357, 17.02718415
11.02950588, 3.56721180, 7.18853253, 6.21691242, 11.03063915, 19.83557410, 8.20213387, 16.53859123
12.14186971, 3.80131556, 8.58923745, 6.32653144, 9.35147047, 19.27368673, 6.03738354, 17.67696241
15.42238633, 3.79473319, 9.79923466, 6.36199654, 9.37949892, 19.00986586, 6.30079360, 21.61538804
16.08570794, 5.36889188, 11.81630230, 7.17112265, 9.42204861, 23.14249338, 6.78417276, 20.18291357
12.58570618, 5.42217668, 13.55912977, 7.85015923, 10.00624805, 26.45893044, 7.58287544, 19.72054766
13.41920266, 3.80131556, 12.08925142, 6.93721846, 10.10940156, 21.67890680, 9.36082261, 25.78517016
15.46932448, 3.84707681, 10.49285471, 7.16414684, 11.66083187, 26.08208197, 9.91211380, 23.77866691
13.22970143, 3.83731677, 8.84307639, 8.32616358, 12.36426302, 30.19105828, 7.96084166, 17.93181530
14.13329403, 3.72155881, 7.19722169, 7.24741333, 12.22190656, 25.72158627, 6.65957957, 18.24554740
15.09138827, 3.50000000, 7.66811581, 5.95818764, 10.19681323, 29.83663855, 7.28525909, 18.42213343
13.97944920, 3.13847097, 7.22149569, 6.88658115, 10.10692832, 27.91818404, 8.70631954, 19.24188140
15.33541653, 4.02181551, 9.00832948, 7.51997340, 11.42694185, 20.25462910, 8.30361367, 22.61083811
16.59066002, 4.79583152, 10.07099796, 6.50384502, 9.85520167, 16.99852935, 6.82092369, 24.06345777
13.95528574, 4.74341649, 10.64894361, 5.77494589, 9.63716763, 18.97893569, 8.07774721, 21.04637736
9.53152664, 3.76828874, 10.25914226, 6.04772685, 11.27164584, 24.40133193, 8.57904424, 16.96024764
10.85472247, 3.49642675, 6.89021045, 5.92452530, 11.80360115, 22.35341137, 7.41282672, 20.53655278
9.89317947, 4.08656335, 8.19603563, 5.33151011, 10.44030651, 19.99812491, 6.21490145, 18.57081043
8.72353140, 3.49284984, 9.52365476, 5.82022336, 9.14330356, 23.32487942, 6.35609943, 10.61131472
12.85009728, 4.31566913, 9.07469008, 6.20483682, 10.39951922, 23.84638337, 5.84380013, 15.22005256
14.29073126, 4.83735465, 9.73781290, 7.23187389, 11.31591799, 20.89377898, 5.62361094, 19.52434378
13.22214052, 3.62629287, 9.26957388, 7.21283578, 8.74070935, 23.12412160, 6.42845238, 19.56335861
13.60973916, 3.06186218, 7.67300463, 5.03487835, 7.95770067, 27.83388223, 6.75647837, 24.50255089
11.91322794, 2.96226265, 5.16720427, 4.51386752, 10.72263960, 23.54570024, 7.55479980, 21.93741097
8.41575903, 3.45687720, 5.06951674, 5.25119034, 10.20906460, 18.12456896, 8.21279490, 12.63131030
11.12429773, 4.13521463, 5.42448154, 5.51135192, 7.89778450, 17.05725652, 8.72496418, 16.29417074
12.92574949, 4.59891292, 9.99624930, 7.77013513, 9.83869910, 20.05617112, 9.62418828, 23.11871536
12.29532431, 6.47495174, 15.36635936, 10.38147388, 10.92474256, 22.84786642, 12.11094546, 24.04059067
11.19933034, 7.03029160, 16.49469612, 10.20661550, 8.46758525, 20.22560259, 13.74863630, 20.70024154
12.11507326, 7.47663026, 20.83986564, 9.69535971, 7.98749022, 19.90477330, 13.62626141, 20.02436016
12.59265659, 6.87568178, 20.24660465, 10.13163363, 10.26157883, 24.17229819, 15.70907381, 23.22391009
13.36693682, 5.95399026, 16.27114010, 10.54988152, 10.95331000, 25.90318513, 17.35439426, 23.68702176
13.14819379, 6.24099351, 16.25115381, 10.69228694, 10.50476083, 23.45687532, 16.76380029, 24.38390863
13.65192294, 6.58027355, 17.54707953, 9.41674041, 11.05780268, 24.06865181, 16.79285562, 26.26832694
15.92482339, 7.91833316, 23.28518843, 12.38244725, 12.25765067, 27.93743009, 16.46815108, 20.56514041
16.16941557, 7.79102047, 21.90890230, 13.46384046, 11.02950588, 28.46445151, 12.66688596, 19.82296648
16.03277892, 7.26808090, 17.77849825, 11.83110308, 11.22051692, 27.87113202, 11.60926354, 22.55437873
14.12798641, 6.17454452, 16.07482504, 10.90412766, 12.51499101, 23.60031779, 11.27164584, 21.26793361
12.10578374, 6.17454452, 16.35084096, 11.29158979, 11.65654323, 20.87702086, 10.13780055, 21.36000936
14.22058367, 6.41872261, 17.16610031, 11.79936439, 13.30319510, 24.08059385, 13.01441508, 22.53552751
16.73917561, 5.03984127, 13.13487724, 10.03992032, 13.12630946, 26.67208278, 12.06544653, 24.20382201
14.03121520, 4.84252001, 11.26720906, 7.99061950, 12.20860352, 26.68894902, 9.66566087, 22.06864291
11.94884932, 5.38980519, 10.89954127, 7.01605302, 12.15421738, 20.46948949, 10.27010224, 21.77326342
15.72815946, 6.27096484, 14.67906673, 9.45912258, 17.82203692, 23.66960076, 11.69829047, 24.10757142
15.75436447, 5.89067059, 15.52417470, 9.16105889, 18.28455632, 26.04131333, 12.88894875, 22.43379148
12.91317157, 5.24880939, 12.93445012, 7.22149569, 11.13665120, 21.28027255, 12.65997630, 19.51601906
15.02165104, 4.67439836, 10.88347371, 6.85200701, 12.35414910, 22.75357115, 9.69793793, 23.05862095
17.69887002, 3.21325380, 5.57225269, 6.45174395, 11.71750827, 20.48658097, 6.01248701, 23.16570741
15.39886359, 3.44238290, 4.57438520, 6.31070519, 10.01498877, 20.34821860, 9.36349294, 17.67625526
12.15730233, 3.58120092, 5.63914887, 6.96060342, 11.20044642, 25.00599928, 10.79583253, 17.83185352
13.30977085, 3.58120092, 5.95818764, 6.81725751, 12.58868540, 25.35251467, 8.32316046, 22.55825791
14.33701503, 4.08350340, 11.18257573, 7.62889245, 12.59761882, 22.56490638, 9.47100839, 23.32273569
14.01873746, 7.77013513, 20.49878045, 11.78558441, 11.97393001, 18.88451747, 15.83429822, 19.15724406
14.97247475, 8.79488488, 25.49509757, 13.66016105, 12.14701609, 23.85214875, 17.93878480, 18.07691899
12.41873585, 7.06753139, 21.21791696, 12.98364356, 9.66566087, 24.18263840, 15.50564413, 16.42939439
15.62689988, 7.21803297, 15.78052597, 12.11919964, 13.69215104, 18.78430196, 14.08012784, 20.29039181
16.98675955, 6.40312424, 17.56203291, 9.91085264, 15.56759455, 22.12521186, 13.31634334, 22.18332707
11.12879149, 4.51940262, 15.68279312, 6.97853853, 12.28108301, 26.41543110, 11.75797602, 16.53405576
14.02586896, 3.82099463, 9.62159031, 7.77978149, 12.60555433, 22.87465847, 11.00795167, 18.15075756
15.75357102, 4.37892681, 10.63249735, 8.60377824, 12.79550702, 24.15522718, 11.84694053, 21.23205124
13.21552118, 4.78016736, 12.02185510, 7.81984655, 11.02043556, 25.38355767, 11.26277053, 18.47768925
12.66293805, 4.01559460, 9.30456877, 7.06399320, 10.64307286, 17.21772343, 9.33541643, 19.58443259
17.09385855, 4.26321475, 9.23985931, 6.60870638, 11.70576781, 17.55704987, 12.00416594, 19.65197191
18.81289451, 4.70106371, 9.12277370, 6.71565336, 11.46189339, 25.45142432, 13.07765269, 19.45507646
18.22361106, 4.55796007, 9.57340065, 7.00178549, 12.31868499, 27.28232028, 12.40060482, 23.71444707
17.25181150, 8.74356907, 20.93919769, 13.07191646, 13.81846591, 28.33769574, 13.81937046, 27.09520253
14.35008711, 8.52789540, 20.48291971, 12.51299325, 13.96603022, 31.58678521, 13.16149688, 26.71516423
13.23725802, 3.78483817, 10.55461984, 6.05598877, 13.80670127, 27.40620368, 10.92588669, 22.35061520
13.04032208, 3.71483512, 10.61131472, 6.97495520, 12.41470902, 22.04370658, 9.82852990, 18.43569906
13.78767566, 3.85681216, 8.70344759, 6.16846821, 11.14226189, 24.51988989, 11.82581921, 16.23422311
16.57633856, 5.09656747, 11.84799561, 8.15322022, 11.56070932, 32.01757330, 12.16552506, 23.29699551
15.60929210, 5.68550789, 13.53421590, 9.49473538, 14.82312383, 30.26549190, 10.54632637, 22.69526382
15.65806501, 5.22494019, 12.19221063, 9.15559938, 14.76482306, 24.39672109, 13.36880698, 22.09298531
16.56426877, 5.48634669, 12.68660711, 9.72111105, 12.08097678, 22.10316719, 13.92569567, 22.75576850
14.46115486, 5.08920426, 11.66511894, 9.79540709, 12.74264494, 26.17966768, 12.94604187, 23.52445536
18.44925473, 4.28077096, 9.02358022, 8.21583836, 14.53702170, 27.71236186, 17.27787603, 25.27943828
18.99341991, 4.67439836, 8.40684245, 6.51152824, 14.34747365, 18.79095527, 18.46212339, 19.07812884
16.62979254, 4.35603030, 8.02651855, 6.66520817, 13.48981097, 20.80204317, 15.85796330, 19.09908375
16.42102311, 3.50356961, 11.53906409, 10.08712050, 13.80670127, 29.44443920, 13.97676644, 21.46217603
15.49112649, 3.95916658, 14.69523732, 11.14226189, 15.15420734, 35.91030493, 14.12887115, 22.19966216
15.37123938, 4.74868403, 15.46043337, 8.38450953, 17.51713447, 37.29276069, 13.61524880, 23.36075769
14.14920492, 4.82959626, 13.94363654, 8.46020094, 16.23345311, 30.67327827, 14.21267040, 21.00119044
15.23154621, 7.79903840, 10.93389226, 8.46610891, 15.03579063, 22.30919093, 14.44731809, 20.17981665
31.47419578, 10.15258588, 9.68633057, 7.12916545, 15.40454478, 25.31106477, 14.38228076, 45.75778622
35.72849003, 8.51322501, 11.53906409, 6.43039657, 13.82570071, 26.30446730, 14.13594709, 51.80540512
24.34132289, 6.90289794, 14.81131324, 9.37549999, 14.28285686, 25.02049160, 12.23723825, 37.86786236
15.24631103, 6.17049431, 13.39029499, 9.62938212, 12.10991329, 23.06078923, 13.46384046, 28.86563701
16.32559340, 4.22492603, 9.85520167, 6.71937497, 10.01498877, 27.72047979, 13.37908816, 25.74975728
18.30300522, 4.33589668, 11.23276458, 7.55810823, 14.35531261, 34.01249770, 9.28304907, 25.87663038
15.15585695, 5.02244960, 12.09855363, 7.75725467, 15.56920036, 27.95174413, 9.82598596, 19.86202407
13.54437152, 4.79322438, 11.18481113, 7.62889245, 13.36226029, 22.74862633, 10.43910916, 23.37038725
18.50337807, 5.18169856, 11.34350034, 7.04982269, 11.84271928, 32.06243908, 12.30751803, 32.05737045
19.06436466, 5.74238626, 11.71750827, 7.83262408, 12.45090358, 36.70660703, 13.47404913, 30.43805184
15.56197288, 4.73550420, 10.67707825, 8.95404936, 13.11678314, 30.13801586, 11.75478626, 24.89779107
14.50344787, 3.83079626, 9.02911956, 7.68114575, 12.01561484, 25.20267843, 11.59417957, 24.27138233
14.28898177, 4.08656335, 7.68602628, 7.45150991, 10.19068202, 31.12555220, 9.63327566, 24.66779277
15.12778900, 4.42153819, 7.26980055, 7.04804938, 13.03744607, 29.42447960, 7.91517530, 25.69095171
12.04055647, 3.98434436, 8.35763124, 5.92030405, 12.85884909, 24.96096953, 7.57462870, 20.79543219
11.43241007, 3.62284419, 9.73909647, 6.41287767, 9.87294282, 27.08551273, 10.37424696, 15.45800763
15.33460140, 3.48568501, 8.81476035, 6.15020325, 12.36931688, 30.45529511, 9.75448615, 22.89213839
15.30114375, 4.32434966, 9.21004886, 7.40776620, 13.61983847, 29.80981382, 7.57957782, 25.32242090
12.79843740, 4.30406784, 9.32469839, 7.17635005, 12.41068088, 25.85053191, 8.56300181, 22.80844142
12.42779144, 3.24422564, 6.21288983, 5.23211238, 11.68546105, 26.56689669, 7.58122681, 22.95920295
13.32197433, 3.79473319, 8.58778202, 6.49615271, 12.40463623, 31.19294792, 8.83459111, 23.42861498
14.41006593, 4.93710441, 10.11558204, 7.28354309, 10.95445115, 31.71868534, 9.81070844, 21.50000000
14.69438668, 4.57438520, 7.16240183, 7.02851336, 9.67083244, 25.98701599, 7.73304597, 18.98749589
12.45391505, 3.10644491, 3.53906767, 6.11146464, 11.82476215, 27.12332944, 7.67789034, 21.46974616
9.12277370, 3.22490310, 4.06201920, 8.17618493, 13.60147051, 31.53529768, 9.55379506, 21.67429353
12.54392283, 3.97177542, 5.57897840, 8.26135582, 11.70363191, 26.95830113, 9.00832948, 22.64784758
15.20361799, 4.04969135, 6.30476011, 6.44786786, 8.36211696, 21.16482932, 7.10281634, 21.28614573
12.64713406, 3.51425668, 5.63471383, 7.01961537, 10.07099796, 21.91289575, 6.61248819, 22.91069619
11.76435294, 2.97489496, 4.93457192, 6.18667924, 11.31923142, 22.02612086, 6.20483682, 23.60879074
11.60064653, 3.27490458, 5.57673740, 5.86515132, 11.30154857, 22.00965697, 7.47830195, 19.61185866
10.13780055, 3.65376518, 6.76202632, 7.01605302, 11.97184196, 19.25616784, 8.09938269, 21.27616037
14.03744991, 3.52845575, 6.65957957, 7.98905501, 13.19848476, 18.27224671, 7.87718224, 22.27554713
16.54010278, 3.40954542, 6.78232998, 8.01716908, 13.43688952, 20.53472668, 8.31564790, 22.69195893
13.92210473, 3.24807635, 6.72309453, 6.70074623, 10.31624932, 21.24735278, 7.33484833, 20.81165539
16.29877296, 3.93382765, 5.46580278, 5.74238626, 7.63708059, 22.05164393, 7.16414684, 25.54848332
16.46511464, 4.21900462, 5.44977064, 7.78781099, 9.68504001, 24.22343906, 7.65179717, 27.98526398
17.69604476, 4.21900462, 5.85875413, 7.43135250, 13.91312330, 23.99479110, 7.10105626, 22.24915729
20.58275978, 4.09572948, 6.46915760, 7.57792848, 14.58937970, 24.65157196, 6.91736944, 19.48909952
16.52800653, 3.51069794, 6.90832831, 9.62029106, 11.42365966, 23.00380403, 6.83008053, 24.49132499
13.35290231, 3.10241841, 6.44398945, 9.42470159, 10.03493896, 18.95257238, 6.04772685, 22.12860140
12.61249381, 3.13448560, 5.92663480, 8.67755726, 13.62442659, 24.00416631, 8.34715520, 20.82846610
23.65480924, 4.56618002, 8.15322022, 7.96555083, 17.22498186, 32.66113899, 8.75928079, 26.55701414
25.53331158, 4.59075157, 7.66974576, 6.31466547, 13.52774926, 28.13627552, 5.95189046, 21.12877185
17.23368794, 3.36154726, 4.02181551, 6.55362495, 7.67626211, 20.48230944, 5.05964426, 22.29181464
19.08402473, 3.92109679, 4.46374282, 7.93567892, 12.16552506, 24.53415986, 5.40370243, 26.31206947
21.39158713, 4.49722136, 7.61905506, 8.90926484, 14.30384564, 20.91709827, 5.90550591, 22.68865355
19.41198084, 4.06201920, 7.82623792, 9.18558654, 12.04159458, 19.71420807, 5.54526825, 21.71347508
17.32844482, 4.14125585, 9.31665176, 8.22648163, 10.99886358, 23.03692688, 6.40117177, 23.20021552
18.46144631, 4.44690904, 13.57755501, 8.81901355, 9.88180146, 23.63577796, 6.39140047, 22.06524416
20.55237213, 4.36463057, 11.99270612, 8.64146978, 9.72239682, 22.46052092, 6.31268564, 20.85485555
21.22557420, 4.37607130, 7.18157364, 8.15168694, 11.28273017, 23.70653918, 6.59545298, 24.41106307
19.36362569, 4.54422711, 10.65246450, 7.91675439, 10.95445115, 30.40312484, 7.40607858, 24.53874487
16.69580786, 11.40833029, 29.11400007, 12.98460627, 10.59716943, 27.43537862, 12.47497495, 25.80697580
14.21618796, 11.94571053, 31.11591233, 13.99106858, 10.35736453, 19.21848069, 15.80268964, 23.53348678
13.28250729, 8.60958768, 22.39977678, 12.93445012, 9.80051019, 24.77095073, 15.91304496, 17.71440092
12.87730562, 8.25832913, 19.93175858, 14.30559331, 9.15559938, 30.89012787, 19.02826844, 20.94636007
14.12444689, 7.20069441, 19.14810696, 12.11610498, 10.04863175, 32.76812476, 22.64343172, 22.93196459
17.99235949, 8.54254061, 23.06783475, 12.06441047, 13.73772179, 34.40094475, 19.25422032, 22.80460480
19.29702050, 9.73139250, 23.29431261, 13.84106210, 14.56880228, 35.42880184, 13.37628499, 22.29069313
17.92832954, 8.72782905, 21.06774786, 14.40138882, 12.18195387, 30.95319047, 16.39664600, 23.84900417
15.51773179, 6.19475585, 19.20221341, 12.72006289, 10.92474256, 26.38370709, 16.34701808, 26.50565977
12.69251748, 5.38748550, 17.74119500, 10.40312453, 10.83512806, 25.21358761, 12.76714533, 24.55249478
11.39298029, 5.58121850, 14.48361143, 10.57473404, 10.45227248, 24.02966916, 13.77679208, 22.74368044
12.36122971, 6.96598880, 15.93345537, 11.62647840, 9.78774744, 25.43914307, 14.55850267, 23.63048878
12.87633488, 6.80257304, 17.43272784, 12.24540730, 10.45227248, 29.37175514, 17.22570753, 21.89520495
12.59861103, 5.34088008, 14.70799103, 10.44509454, 11.52280348, 26.83002050, 16.33248297, 21.81169411
11.52171862, 4.78278162, 12.86273688, 7.57297828, 11.20267825, 19.57102450, 11.14001795, 21.61307475
11.65118020, 4.56618002, 13.23348027, 8.18993284, 10.48451239, 30.43681981, 15.02081889, 21.51859661
11.32475165, 3.87943295, 11.95930600, 8.52936105, 9.73396117, 30.02165885, 14.89714738, 19.38040247
12.49299804, 5.71401785, 13.39402852, 8.63568179, 9.88180146, 20.20643462, 10.96243586, 16.71451465
13.61065759, 5.91819229, 12.00624837, 7.93882863, 9.62418828, 20.94456970, 12.06026534, 22.88776966
11.81630230, 4.44128360, 9.90959131, 7.57132749, 11.07023035, 23.27230113, 9.88938825, 22.76455578
9.93981891, 4.12916456, 10.23596600, 8.55131569, 12.36628481, 23.36610793, 7.19548470, 15.58204094
8.60232527, 3.18982758, 7.96241169, 6.99642766, 12.07062550, 20.47925780, 6.27295784, 13.32854081
8.62264461, 3.13448560, 7.12214855, 5.31272058, 11.41161689, 24.58607329, 5.86088730, 15.04077791
9.05952537, 2.93257566, 7.16240183, 5.69868406, 10.32351684, 23.09220648, 5.93717104, 15.85559838
11.38639539, 3.14642654, 8.16241386, 5.90762220, 9.51314880, 17.13475999, 6.36788819, 15.81771159
13.72861974, 4.43565102, 7.64362479, 6.54408130, 12.28617109, 20.43036955, 5.85234996, 18.87061207
15.24877044, 6.79889697, 7.77174369, 6.59355746, 12.48499099, 26.01201645, 6.63324958, 22.41595414
13.16149688, 6.64642761, 6.96239901, 5.60802996, 9.56164212, 27.51999273, 8.84731598, 23.84061660
12.67477810, 3.91152144, 6.82275604, 5.51361950, 10.52259474, 27.44676666, 9.49736806, 21.62059204
13.95349419, 3.53906767, 7.94355084, 5.86728216, 9.25067565, 22.60309713, 8.00312439, 15.70668647
12.57974563, 3.68442669, 8.36510610, 6.01872079, 8.18840644, 17.47712791, 7.99531113, 12.90058138
12.55786606, 3.75832409, 7.43135250, 6.02287307, 9.10219754, 17.57128339, 8.50734976, 14.41440252
11.80148296, 3.95600809, 6.08276253, 6.44398945, 9.25337776, 18.41398925, 7.17809167, 14.01160234
13.26744135, 4.18330013, 8.09011743, 7.09577339, 9.79157801, 20.86324519, 7.15716424, 20.36295656
12.71121552, 4.10182886, 7.97025721, 5.88005102, 12.30954914, 22.65722843, 7.61905506, 24.20278910
8.18535277, 4.57438520, 8.29909634, 5.69429539, 13.98391934, 25.22647419, 6.26298651, 23.13006701
14.07035892, 5.42908832, 8.44393273, 6.86476511, 11.58555135, 22.82213837, 6.09507998, 24.17591777
17.13257132, 4.88876262, 9.44854486, 6.64830806, 9.22225569, 18.27019431, 7.61413160, 22.87739059
13.06426423, 3.88265373, 10.75174404, 7.79102047, 9.99624930, 20.81465830, 7.78299428, 21.10035545
10.18331969, 3.25192251, 8.07929452, 7.03029160, 12.65405073, 26.70954885, 8.08393469, 22.40145085
12.33389638, 3.42052628, 6.88839604, 7.10281634, 13.34915728, 28.64742571, 8.28552955, 23.03204290
14.65946793, 4.04351332, 8.01716908, 8.21735967, 11.26499001, 24.57437690, 8.08548081, 24.17746885
14.28373201, 4.50000000, 7.02139587, 6.89202438, 10.47019580, 23.06891848, 7.74758027, 25.49950980
13.41640786, 4.16233108, 7.32973397, 5.77061522, 9.82852990, 21.49069566, 8.74499857, 20.49329159
13.83112432, 4.17133072, 8.66314031, 6.83191042, 8.57175595, 20.52742069, 11.48477253, 19.50448666
12.33085561, 3.96862697, 6.79889697, 7.65996084, 8.04363102, 23.40779785, 11.40504274, 20.62219678
14.17921013, 3.95284708, 6.84105255, 6.96239901, 11.09842331, 20.67123605, 7.55810823, 18.37185347
17.69392551, 4.34165867, 8.46610891, 6.44786786, 12.58967831, 19.73702105, 6.61815684, 24.62417511
15.03246487, 4.14125585, 8.38003580, 6.30476011, 11.64903429, 25.39734238, 7.30410843, 22.71508309
11.17922180, 3.92109679, 7.65832880, 5.52946652, 10.03618453, 23.21368131, 6.95521387, 18.91824516
11.32585538, 3.26343377, 6.18465844, 4.43846820, 8.65303415, 17.96176495, 6.25499800, 20.77017092
15.32726329, 3.80788655, 6.73795221, 4.99249437, 10.17840852, 22.77498628, 8.34565755, 22.50722106
16.06860293, 3.90512484, 6.62382065, 6.13392207, 10.61838029, 28.43896974, 9.14193634, 23.64635278
13.21930407, 3.68781778, 8.50441062, 6.04565960, 9.91967741, 27.56628375, 8.03585714, 23.17272103
12.74950979, 3.91471583, 11.66619047, 5.68110905, 10.20416582, 24.86211978, 8.38152731, 21.85348942
12.87536407, 3.28252951, 9.69020124, 6.65582452, 11.31481330, 23.81806037, 7.32802838, 21.10746314
12.91510743, 3.44963766, 8.09166238, 8.57175595, 10.62308806, 26.70159171, 5.91819229, 21.81054791
13.16434579, 3.77160443, 9.28170243, 8.95125689, 11.87328935, 27.11042235, 6.11759757, 21.64139552
11.13889582, 3.32039154, 8.51909620, 7.65996084, 12.87827628, 20.25524623, 6.84653197, 21.44294756
10.60895848, 3.97806486, 7.37902433, 7.25086202, 10.72963187, 17.57981797, 6.96060342, 17.38390060
11.49565135, 4.43846820, 7.64525997, 6.65957957, 10.35857133, 18.29344145, 6.04979338, 16.50605949
10.27496959, 4.00312378, 9.27900857, 6.25099992, 12.59563416, 21.52440475, 6.22093241, 17.23731418
15.76943246, 5.61471282, 17.91577517, 12.38446608, 13.31728200, 22.68700068, 10.43192216, 21.48313292
17.84726870, 7.29554659, 23.18027178, 13.78132795, 9.90706818, 21.09917060, 13.50185172, 25.01749388
15.37693077, 9.30994092, 29.72036339, 14.21882555, 8.91627725, 23.27068972, 14.05080069, 20.17362139
15.88316719, 12.05197079, 36.07318949, 16.68532289, 13.00961183, 33.22047561, 16.50984555, 17.74189956
13.82931669, 12.52497505, 34.31981935, 16.62603380, 11.84166373, 38.03353783, 17.83115251, 17.78341924
11.46080276, 12.05404496, 36.03643989, 19.09581106, 10.19068202, 31.14361893, 16.73768204, 16.91301274
12.37133784, 11.15907702, 36.32182539, 19.35523185, 12.15318888, 26.96479186, 18.31392913, 24.39415914
14.78597308, 9.91967741, 32.56224808, 18.43569906, 11.23832728, 25.03996805, 15.37693077, 24.81128775
22.43713440, 10.41513322, 34.12513736, 16.25807492, 12.04782138, 23.48297255, 15.40373331, 19.56144166
24.05982128, 8.97496518, 31.82373328, 13.74045123, 12.12023102, 27.43082208, 17.69887002, 20.74066055
18.45331948, 7.08519583, 27.74166542, 13.38562662, 14.11647973, 31.30495168, 12.98845641, 25.63103587
18.13904628, 7.31436942, 24.01249675, 12.44387399, 15.68359015, 29.15690313, 8.94566934, 25.26262061
19.76739740, 6.63513376, 19.95620204, 12.45692578, 13.59779394, 23.91704413, 9.53546014, 21.07783196
21.21202489, 6.01456565, 18.86199883, 10.53446724, 11.85959527, 25.49362665, 11.93209956, 19.13765921
23.32863048, 7.52828002, 22.35005593, 11.58770901, 11.23165170, 26.88029018, 14.03923075, 21.64255068
20.96365903, 12.15935854, 29.48728540, 15.66285415, 11.73882447, 29.27584328, 19.04074578, 24.35364449
17.99861106, 12.03744159, 34.26149442, 15.98827696, 11.44879906, 28.27277843, 18.84940317, 23.75342081
20.79483109, 7.75241898, 29.83538168, 13.36226029, 10.54514106, 24.94894787, 13.70401401, 23.60508420
19.35135654, 7.55148992, 20.62462121, 12.72693993, 10.54158432, 24.87317833, 13.27497646, 20.85785224
14.57909462, 6.92459385, 15.79952531, 9.90454441, 14.49051414, 28.53857039, 12.62735127, 20.87103256
17.34358671, 7.23878443, 17.26340059, 10.55580409, 13.94005022, 24.88222257, 9.69664891, 21.91574776
16.89230594, 7.24568837, 18.47362985, 11.65761554, 13.75681649, 20.27375150, 11.68866973, 25.11374126
16.61475248, 4.59075157, 12.70629765, 8.29909634, 14.51206395, 24.67792536, 14.57309164, 25.48578035
17.61249556, 4.16533312, 10.69929904, 8.60232527, 15.04410183, 27.10119924, 13.02977360, 20.44688240
16.90783842, 5.55877684, 14.19066595, 12.83647148, 13.84647970, 23.48350485, 9.14330356, 27.97409516
17.93808797, 6.29880941, 14.37532608, 13.26649916, 9.19918475, 16.26806688, 7.93252797, 27.67128476
16.67633053, 5.39212389, 10.80393447, 8.48969964, 10.55343546, 32.73453833, 13.16054710, 21.71174797
17.94923397, 4.84252001, 10.34770506, 7.86606636, 8.85437745, 33.06092860, 13.85730854, 25.66758656
17.28800162, 5.39907399, 12.60357092, 9.71853898, 8.28100235, 25.07139805, 11.66297561, 22.84896059
15.40048701, 4.93710441, 13.21079104, 10.77613103, 9.51446268, 27.72543958, 11.91007976, 17.31040150
16.95951061, 4.60977223, 12.35516086, 10.50595069, 9.48551527, 25.17439175, 15.44020725, 14.32131279
15.35333840, 6.54790043, 20.54568081, 11.73562951, 8.65303415, 25.36335940, 15.96167284, 19.91544627
14.69523732, 8.37257428, 29.13073978, 14.05169029, 7.12039325, 23.93376276, 11.25388822, 22.70957948
14.76228302, 10.55106630, 38.55936981, 13.16434579, 7.08519583, 21.63561878, 15.37774366, 20.29408781
13.90413608, 11.90168055, 40.29143830, 14.35182915, 9.43530604, 22.65446976, 15.37530488, 18.49391792
12.96051696, 9.76601249, 29.39132525, 17.42053386, 9.56686992, 21.65409892, 10.77032961, 14.78597308
13.27685957, 8.36211696, 29.15647441, 17.34358671, 9.07331252, 23.98332754, 14.18890412, 18.39769007
16.36994197, 7.94040301, 29.82029510, 14.06413879, 10.50119041, 27.46315714, 15.53785700, 22.44381875
16.08104474, 6.98032951, 23.06620905, 11.99374837, 10.03369324, 24.37416665, 16.74290895, 21.46683489
15.51612065, 6.91556216, 20.65127115, 11.62432794, 9.62938212, 23.14681404, 14.41873781, 20.86264605
17.47355144, 6.47302093, 18.46009209, 9.84250984, 11.13552873, 23.16031088, 12.01561484, 20.85245789
17.31617741, 6.54599114, 18.04161855, 10.26036062, 10.90756618, 23.24327860, 13.10915710, 19.45057840
15.62769977, 6.42261629, 15.94835415, 11.33137238, 8.13326503, 28.93743251, 12.99230542, 18.34461774
16.55067974, 7.39932429, 19.72688521, 13.14248835, 8.05915628, 29.31723043, 16.87527778, 18.39565166
16.73170643, 7.56637298, 22.43657728, 13.04223907, 10.66536450, 28.07668072, 15.94757035, 20.05243127
14.81806330, 7.19548470, 20.29039181, 10.98294132, 10.80740487, 27.21121092, 11.00908716, 18.25924423
15.70270677, 6.11146464, 16.59819267, 9.32737905, 8.89943818, 22.10147054, 9.33005895, 17.95480437
15.52095358, 5.38052042, 13.67113748, 8.01872808, 8.35613547, 23.92592736, 7.19027120, 16.86416319
15.49838701, 6.99464081, 18.24691755, 7.85175140, 9.36215787, 23.75131575, 9.59557190, 18.00347189
15.23646941, 7.46156820, 20.06364872, 8.63568179, 9.86280893, 21.71347508, 9.90706818, 23.45740821
16.44232344, 6.62193325, 14.22497803, 9.18286448, 9.76217189, 25.33969218, 10.69462482, 23.55047770
18.53914777, 5.83309523, 11.21271600, 10.36580918, 9.96242942, 29.89356118, 12.82088140, 20.77558663
16.16632302, 6.53452370, 18.46483144, 13.89244399, 10.71330948, 30.75508088, 11.08038808, 20.76053949
12.14289916, 9.39680797, 26.44428105, 14.12975584, 11.37431317, 29.23568026, 12.67379186, 20.03372157
12.47798061, 10.81780939, 36.19944751, 13.54067945, 12.57577035, 25.20119045, 12.08408044, 17.04552727
15.07066687, 8.49264388, 33.41294659, 12.94797281, 11.35671607, 22.14610575, 11.40942593, 21.92145068
13.55451954, 8.09166238, 26.89749059, 12.52198067, 8.11480129, 27.92221338, 11.98123533, 22.53330868
14.70374102, 10.21640837, 29.39557790, 14.29510406, 10.06354808, 32.49923076, 12.05300792, 19.26071131
16.57332194, 8.79062000, 26.53394053, 12.94990347, 12.69153261, 33.70793675, 12.92961716, 19.67422171
13.06617771, 7.25086202, 22.58816062, 11.42037653, 11.76010204, 32.07530203, 11.96557562, 17.67979072
10.43192216, 7.94197708, 24.24974227, 10.57473404, 10.94988584, 30.22705742, 11.97497390, 14.58166657
11.83744060, 7.74273853, 24.70880410, 9.76857206, 9.92093746, 26.32299375, 9.78135982, 15.13439791
13.60055146, 7.36376263, 20.59550922, 11.54880946, 8.12557690, 19.50320486, 7.12390342, 17.82834821
16.18177988, 6.53261050, 19.68120931, 11.59741350, 8.86002257, 20.20767181, 7.37733014, 22.57598281
15.83982323, 5.25119034, 16.43015520, 10.23230179, 7.78460018, 22.54107362, 6.92098259, 28.68754085
16.63279892, 6.76202632, 16.37375949, 10.81203034, 9.86914383, 22.23679383, 7.46993976, 28.93311252
16.16245650, 7.39256383, 20.40404372, 10.88347371, 12.57775815, 24.25438105, 8.90224691, 24.30997738
12.19631092, 5.77494589, 18.69090688, 9.73524525, 11.47497277, 25.37469212, 9.36749700, 17.02571584
13.03456942, 5.35490429, 15.04160896, 10.96129554, 9.11180553, 25.35744467, 8.35314312, 16.02654049
15.36229150, 5.81592641, 13.94901430, 11.61249327, 7.68439978, 24.16971245, 7.85970737, 19.71293991
14.94155280, 5.49772680, 11.39956140, 9.41806774, 8.69626357, 21.44527920, 7.05336799, 22.05447800
11.48694912, 5.56327242, 11.85643285, 9.02496537, 9.95991968, 21.63561878, 7.36715685, 20.86983469
11.73562951, 5.87367006, 12.49499900, 10.23840808, 8.73212460, 21.81284026, 7.07460246, 17.45780628
12.87342223, 5.38516481, 12.85398771, 9.63716763, 10.05609268, 26.17059419, 5.23211238, 15.42157579
13.01825641, 5.89703315, 14.96662955, 10.12175874, 11.85537853, 26.57865685, 6.54790043, 17.31328969
10.73429085, 5.42908832, 13.36319573, 10.01249220, 11.67690027, 24.38237068, 6.57076860, 22.04087113
12.52896644, 3.77491722, 9.18830779, 8.72926114, 12.32172877, 23.91024885, 8.38003580, 23.29323936
14.08545349, 4.17432629, 9.54070228, 9.58514476, 12.11816818, 27.68663938, 10.82474018, 24.46732515
10.86853256, 4.39886349, 11.39517442, 8.97078592, 12.27191917, 29.94828877, 9.97747463, 20.13951340
12.06648250, 4.79843725, 13.68484563, 7.76047679, 11.90483095, 26.51933257, 10.04987562, 19.45186366
13.41827113, 4.98497743, 14.73770674, 9.54201237, 10.39471019, 24.92689311, 12.10475113, 22.26768960
12.78573424, 5.53172667, 15.32726329, 9.47628619, 10.14889157, 22.40758800, 15.91540135, 19.15398131
12.52198067, 5.54752197, 14.30471950, 9.43000530, 10.02496883, 21.49127730, 17.61320527, 22.74752734
12.30853363, 5.02244960, 13.91761474, 9.47496702, 10.27983463, 22.68259244, 14.46374779, 23.37947818
14.70544117, 4.82182538, 13.88164255, 7.86606636, 10.06851528, 25.28141610, 10.30533842, 19.36878933
14.41006593, 5.09411425, 14.05435875, 8.82468130, 10.54039847, 24.60081299, 8.96799866, 17.13038237
11.00000000, 4.88108594, 14.18714207, 9.37016542, 11.15907702, 18.62525168, 11.54123044, 12.56184700
15.54911573, 3.67763511, 11.65010730, 9.53939201, 10.76568623, 16.60647464, 12.40665144, 20.54993917
17.48999714, 4.66100847, 10.48451239, 9.16378743, 10.36580918, 22.27330240, 11.79406630, 24.66525897
14.23815297, 4.59891292, 10.44629121, 7.85811682, 9.53677094, 26.73480877, 14.07213559, 20.96127382
12.91317157, 4.31856458, 12.94411063, 9.43133077, 9.63197799, 27.85587909, 13.82208378, 21.96929676
12.28413611, 5.31036722, 15.22005256, 11.48694912, 10.55461984, 26.44097199, 9.92471662, 21.67198653
10.30291221, 4.92950302, 13.62167391, 10.59481005, 10.02870879, 26.73667893, 6.70634028, 18.13146436
9.49605181, 3.81444622, 10.11558204, 7.69252884, 9.40345681, 28.08424825, 6.61059755, 16.76752814
11.91847306, 4.33301281, 12.13775103, 6.47108955, 9.90202000, 22.63459741, 9.01249133, 17.52569542
13.13963470, 4.35603030, 12.70039369, 8.15628592, 9.46440701, 20.91948852, 8.24469526, 18.92220917
14.98332406, 4.87596144, 11.14786975, 8.12865302, 8.78066057, 21.33307292, 6.83373983, 23.33613078
14.01873746, 5.12591455, 9.97246208, 6.24699928, 9.49341877, 21.58819122, 8.69626357, 23.35701180
9.40611503, 4.07430976, 8.57758707, 7.37563557, 9.52234215, 22.60807378, 8.49117189, 17.94714462
11.33688670, 4.08962101, 10.01124368, 8.06535802, 8.22952003, 18.83348083, 6.37181293, 13.93287479
15.17151937, 4.79322438, 9.82344135, 8.86848352, 9.87167666, 28.17312549, 11.46080276, 15.36310515
16.99338106, 5.23927476, 11.04309739, 9.79285454, 9.66178037, 31.50595182, 14.27585374, 22.81556486
18.37389452, 6.13595958, 16.06860293, 9.07744457, 7.74758027, 32.57951811, 14.46029045, 23.86943652
16.98675955, 6.18263698, 16.66508326, 10.83858847, 9.67858461, 30.82288111, 14.73007128, 25.01799352
18.09281625, 6.70261143, 19.34941860, 12.21986088, 9.46044396, 23.89299060, 14.12621676, 30.18484719
16.68382450, 6.46529195, 19.09253781, 11.94047738, 9.45515732, 26.23070720, 13.37348122, 26.65801943
13.06139349, 5.09165985, 18.63598669, 10.18454712, 9.89065215, 25.77644273, 12.71613149, 20.57486330
15.64768353, 6.25699608, 22.42543199, 11.26388033, 9.32737905, 23.05374156, 15.67880735, 19.06370898
18.47971861, 7.33314394, 22.55437873, 11.07813161, 10.13533423, 21.59976852, 14.66458319, 18.42213343
18.63196179, 7.49833315, 24.77801445, 9.98874366, 10.10321731, 20.76294777, 9.79540709, 18.25924423
15.33704665, 6.36199654, 20.62037827, 11.12542134, 9.33005895, 18.33030278, 10.17718036, 18.55734356
16.50530218, 5.16962281, 12.25051019, 9.04433524, 9.94987437, 19.61185866, 11.62325256, 21.86949931
16.96024764, 7.60263112, 21.81169411, 9.70953140, 10.88462218, 24.53976365, 12.41068088, 22.54883589
16.25038461, 8.64146978, 25.78226134, 12.00937134, 10.14026627, 34.80984056, 14.15803659, 31.66583332
18.81355894, 7.44143803, 20.87402692, 11.61464593, 11.23610253, 33.98823326, 12.60555433, 34.76600351
19.84502457, 7.18505393, 20.03684107, 8.99861100, 10.47497017, 24.07592158, 10.08835963, 25.24034469
20.69903379, 6.71192968, 18.96575862, 9.30591210, 8.78635305, 23.56109081, 9.11454881, 23.92122489
18.94069692, 6.60492241, 17.32916617, 9.33675533, 9.60858991, 19.99937499, 12.75245074, 23.15707235
14.96579433, 6.27694193, 16.20879391, 9.94107640, 10.35857133, 18.88186961, 15.06237033, 21.33424477
15.11290839, 5.53624421, 13.29003386, 10.55698821, 10.92130945, 24.55249478, 14.99749979, 21.42661896
14.83997978, 5.36889188, 13.30225545, 9.27496631, 9.48156105, 22.44270483, 13.66016105, 18.19615344
12.79257597, 4.28077096, 11.29158979, 9.26282894, 9.85393322, 17.57626240, 10.24817057, 17.57697357
16.71974880, 4.73550420, 10.34045454, 9.08157475, 12.57974563, 23.53773566, 8.76213444, 22.33942703
18.46618531, 5.83737955, 12.62141038, 8.32316046, 12.93638280, 23.87729047, 9.74551179, 24.24149335
14.67566012, 5.17445649, 12.15935854, 8.05605362, 11.71964163, 21.00773667, 12.06648250, 19.23538406
13.88704432, 4.76445170, 9.08295106, 8.15168694, 10.92359831, 22.14046070, 11.07700320, 19.72118151
19.53522460, 4.83993802, 8.64291617, 7.18505393, 10.12669739, 18.60645049, 9.35414347, 22.29630014
21.88207029, 5.52268051, 9.15696456, 6.74536878, 10.49285471, 18.18309655, 11.13777357, 23.95151352
18.09281625, 6.13188389, 9.92849435, 9.12140340, 9.40877250, 19.34101859, 10.29441596, 22.86372673
14.39704831, 4.71699057, 9.21411960, 9.62029106, 11.08489964, 20.13516824, 7.47663026, 25.49215566
15.22497947, 4.21010689, 11.40723455, 9.20733403, 12.68956264, 24.43767583, 9.68245837, 26.45326067
15.88867521, 4.66904701, 11.55205609, 8.93728147, 10.98635517, 25.06092576, 10.97041476, 22.01987738
14.94155280, 4.17731971, 8.50734976, 7.67626211, 8.71923162, 20.61431541, 10.87658034, 20.93979465
16.99338106, 4.58802790, 10.78424777, 9.34612219, 9.82471374, 24.17746885, 12.15216030, 20.86204688
19.80277758, 5.20336430, 11.51086443, 8.87552815, 11.32585538, 28.53419002, 11.13440614, 21.21791696
20.52498477, 5.06705042, 10.16489056, 6.39921870, 10.72846681, 26.20162209, 9.48287931, 16.66433317
18.74566617, 4.21900462, 9.69149111, 6.23899030, 11.33798924, 25.87276560, 8.93728147, 13.93197761
14.85681662, 4.69308001, 10.33561803, 8.06070717, 9.97997996, 26.92675250, 7.05691151, 15.64209065
14.12002125, 4.54972527, 9.51183473, 8.71206061, 9.08295106, 26.77545518, 9.81198247, 18.89312044
14.78681845, 3.53906767, 9.26147936, 8.51762878, 10.74941859, 28.23384494, 11.13440614, 18.46753909
12.71219887, 4.20119031, 10.75639345, 9.23715324, 11.02837250, 23.74921051, 10.06479011, 16.55898548
12.00624837, 4.30697109, 10.73196161, 8.66890997, 10.62896985, 20.89677009, 11.01476282, 23.15977116
15.03911567, 4.47772264, 9.39148551, 9.44589858, 10.93617849, 22.17712786, 11.22608569, 24.04111062
15.43048930, 5.06705042, 10.79120012, 9.25202680, 11.39298029, 19.32873509, 10.99886358, 20.05180790
12.87536407, 5.32212364, 18.09972375, 9.94107640, 12.11610498, 23.54145280, 10.22374687, 20.86204688
15.26843148, 5.51588615, 22.98042645, 10.15997047, 11.10180166, 27.61657111, 12.86662349, 21.77957759
15.16410235, 7.21803297, 28.17889281, 11.51737817, 10.09331462, 27.25481609, 15.52417470, 23.34630592
14.52067492, 9.39414711, 35.55910573, 17.43702956, 12.58570618, 26.36664560, 12.71613149, 21.25441131
14.64667198, 13.82841278, 42.74576002, 21.18903018, 12.00728945, 23.18782008, 11.62432794, 16.64106367
15.79715164, 15.28561415, 47.09299311, 21.19433887, 9.80561064, 25.01649456, 11.71003843, 18.32552864
17.30317890, 13.90053956, 52.06942481, 20.74668648, 10.17595204, 28.67751733, 14.22849254, 18.39701063
14.30734077, 12.29024003, 49.61930068, 20.07174631, 11.85959527, 25.63006048, 15.10132445, 19.48845812
13.97587207, 10.64424727, 36.89105583, 17.32844482, 11.96035117, 21.83918497, 13.22781161, 18.49932431
15.08724627, 9.40212742, 27.21075155, 14.08634090, 9.19510739, 21.95165142, 12.26682518, 24.59928861
12.79941405, 6.46335826, 20.36909424, 11.68439130, 9.10219754, 22.14158983, 11.65654323, 26.21354612
11.70576781, 6.63324958, 23.81858518, 11.84588536, 9.11180553, 26.32489316, 11.87644728, 20.56878703
17.90670266, 7.09753478, 25.85633385, 12.45592229, 7.59934208, 29.01508228, 11.00340856, 18.02775638
18.45264209, 6.41482658, 18.44112253, 11.58770901, 8.90645833, 24.29248855, 11.23276458, 15.56759455
16.29263637, 5.35256948, 12.01249350, 8.72639674, 10.21885512, 23.83694611, 9.89191589, 22.54273719
16.83820062, 4.35603030, 11.07700320, 7.09048658, 9.54986911, 21.20789947, 10.38989894, 22.80734531
15.14017833, 6.39335593, 16.23345311, 10.06106356, 10.36460322, 22.24634801, 13.18047799, 20.46704668
20.59308136, 6.63890051, 15.19703919, 9.78135982, 11.40942593, 26.26689932, 13.17952958, 26.00144227
24.24974227, 5.97076210, 10.70513895, 6.74166152, 10.30291221, 27.55675961, 11.45316550, 25.42488938
20.80985344, 5.60580057, 12.49399856, 6.65018797, 11.43459663, 25.46271784, 12.88118783, 23.61673136
19.06305327, 4.08656335, 11.50217371, 7.21283578, 11.00340856, 21.44469631, 12.27395617, 22.84786642
23.31255027, 4.42153819, 10.47974236, 6.97316284, 9.34612219, 25.56560189, 8.94706656, 19.64942747
23.94890394, 6.66145630, 16.54085850, 10.05360632, 9.59947915, 25.63883773, 9.02635031, 18.03746102
20.43526364, 6.93000722, 17.39037090, 10.28834292, 9.21818854, 23.22875373, 8.49117189, 20.18724845
22.46886735, 5.31977443, 13.50092589, 6.99285349, 9.71339282, 21.28379665, 7.52661943, 22.97335413
23.12358104, 5.09165985, 13.31446582, 7.78299428, 8.80056816, 24.64447200, 7.87242021, 18.80691362
21.65409892, 5.54752197, 13.72133375, 7.89303490, 10.33440855, 27.41258835, 8.32165849, 14.99666630
20.17486059, 5.44977064, 14.38054241, 8.85437745, 13.91222484, 24.97548798, 9.99374805, 21.37872775
18.86001060, 5.65685425, 15.51612065, 10.26036062, 13.26272973, 25.29377394, 10.78076992, 21.25382319
17.60255663, 5.84593876, 16.96761621, 9.79668311, 10.55935604, 22.09920813, 9.01665126, 16.41873929
16.47725705, 4.63141447, 13.49444330, 7.50666371, 11.23498999, 21.43886657, 7.82623792, 16.06471288
17.06458321, 5.72057689, 13.03265130, 7.87083223, 13.55267501, 25.68851884, 10.08959860, 19.53138500
16.37528626, 6.89383783, 17.37455035, 8.60087205, 12.99807678, 24.63331078, 11.45316550, 20.96067747
17.48284874, 7.59275971, 20.86264605, 12.29634092, 9.94484791, 24.09927385, 12.00208315, 21.79736223
16.75485004, 10.39471019, 32.66687925, 15.16987146, 9.57470626, 28.36591264, 15.22990479, 21.09502311
16.77125517, 10.65833008, 40.92554215, 17.04626059, 10.04365471, 25.91042261, 15.78686163, 17.93530039
17.17338056, 14.30908802, 45.18628110, 18.94069692, 9.29516003, 21.98351655, 15.33460140, 22.41762699
17.12746333, 15.24713088, 40.69182965, 18.16590212, 8.52642950, 24.49897957, 17.86966704, 20.49512137
15.26351860, 10.62779375, 34.24726266, 15.89889933, 8.22496201, 33.97131143, 20.71533249, 15.30767781
15.31257653, 10.95216874, 37.30281491, 13.53790974, 10.15750954, 39.79447198, 20.44137960, 21.12226314
16.97719058, 11.07700320, 35.69943977, 15.10877229, 12.22599689, 35.89951253, 17.85637141, 23.23413437
15.71941475, 12.11404144, 36.87885573, 16.90857770, 10.71797556, 29.79807041, 14.69693846, 19.95808107
15.94757035, 11.02497166, 31.88651753, 15.58605146, 8.38749069, 29.40535665, 12.86079313, 19.92862263
14.86943173, 6.55362495, 20.44382547, 12.92091328, 8.98053451, 32.93060886, 15.90204389, 21.73361452
13.96603022, 9.07469008, 25.77935220, 12.49599936, 8.73069299, 37.78591007, 17.73837648, 22.67873453
15.12944150, 8.54254061, 23.94472802, 10.56763928, 11.35891720, 38.80882632, 19.61950560, 22.59701308
16.02107986, 4.53045252, 15.35089574, 7.41114026, 12.79550702, 31.08375782, 18.37253385, 20.62340903
15.32400078, 4.84510062, 17.24746358, 8.51469318, 10.26036062, 23.40245714, 14.54218003, 20.65429737
13.19374852, 6.50000000, 20.16680441, 10.89380558, 8.82043083, 22.57819745, 14.56021978, 21.99602237
15.83271929, 7.39087275, 23.62096526, 12.07787233, 11.01022252, 26.91049981, 15.52981004, 22.80789337
15.90675957, 14.99333185, 37.74122415, 17.04992669, 16.10900369, 28.79279424, 15.19950657, 24.37724349
15.18387302, 18.89973545, 54.80944262, 24.50969196, 15.50000000, 29.36111374, 16.07015868, 25.33870557
17.05505790, 21.94652592, 56.36266495, 33.13683751, 13.33229163, 37.28538588, 17.02571584, 25.01399608
14.68843082, 23.00000000, 44.97610477, 29.69974747, 13.43688952, 38.52888527, 17.37167234, 20.55419665
11.42803570, 16.33324830, 35.37442579, 17.08654441, 9.64365076, 33.42454188, 17.13330091, 17.19229479
9.72625313, 9.39015442, 28.29266689, 14.08722826, 8.65592283, 29.31083417, 18.53914777, 17.49214109
10.35615759, 9.33273808, 33.78831159, 16.10124219, 9.53021511, 27.43036638, 18.63129088, 17.50071427
12.76420777, 20.09726350, 52.82825948, 25.83311828, 12.05300792, 32.80777347, 20.33777274, 20.72015927
14.05702671, 22.90578530, 56.15714558, 30.23532702, 12.77595398, 32.39560155, 23.23144421, 20.54872259
17.43774641, 15.05988048, 43.12336953, 24.62671314, 13.02305648, 31.09220159, 18.91163663, 18.95850733
15.69315137, 8.55569985, 32.93364541, 15.47821049, 14.47929556, 35.62267536, 14.59194984, 18.41602563
13.12249976, 6.87749955, 24.77448284, 11.54123044, 13.78042089, 35.48943505, 13.15674732, 21.16128541
14.71903529, 7.26119825, 20.56027724, 11.50326041, 12.94314490, 31.48134368, 13.80489044, 20.82786595
14.50517149, 8.98331787, 25.60956852, 12.73184983, 10.71214264, 28.08024216, 15.27416119, 15.55956298
17.21118822, 10.94303431, 37.62811449, 17.45637419, 9.46044396, 26.72124623, 15.69076161, 14.91140503
18.54117041, 10.35495051, 41.03139042, 19.54801780, 9.32335776, 25.75703787, 15.72418519, 17.44204690
22.11730092, 9.48946785, 39.01249800, 16.46359620, 8.64436232, 24.66931292, 15.07066687, 17.69039287
21.48778723, 8.92608537, 33.33354167, 12.99038106, 8.70201126, 28.78367593, 14.50430970, 20.00249984
19.52818476, 8.61974478, 22.25814458, 13.71768931, 8.88538125, 35.43656304, 14.45510291, 25.74975728
21.17309614, 8.71062570, 21.25617557, 12.88991854, 9.99124617, 35.57175846, 19.67549237, 23.86210385
18.88981207, 8.51762878, 22.73763400, 12.44688716, 11.10180166, 30.89660175, 21.47382127, 21.95108198
16.30797351, 7.73304597, 20.72196902, 12.73381325, 10.35977799, 25.11622981, 17.17993015, 23.62890179
15.06651917, 5.97494770, 17.54209224, 9.25472852, 10.55343546, 21.25617557, 15.43048930, 22.13255521
14.61335006, 6.21892274, 16.87009188, 9.24256458, 13.49536958, 27.93921975, 13.87804021, 22.15908392
14.68928181, 6.85565460, 17.61959137, 11.50217371, 13.99196198, 30.10523210, 11.36771745, 28.33990120
16.97866308, 7.97496081, 19.35587766, 11.84483010, 12.82672990, 31.56778421, 15.68119893, 27.78308838
18.36572895, 7.79583222, 18.23800976, 10.97838786, 11.18592866, 29.88185068, 16.51363073, 26.75724201
17.98749566, 10.41033141, 17.21118822, 11.52388823, 11.12542134, 26.38654960, 14.15008834, 26.67864314
16.28572995, 10.86623210, 15.32155345, 11.04536102, 13.43502884, 28.35797948, 15.34275073, 27.62516968
19.36233457, 7.39087275, 13.21268330, 12.26682518, 14.97330959, 29.21301080, 14.99666630, 30.22829800
20.53837871, 7.44815413, 16.14543279, 12.22906374, 19.19570264, 28.36326850, 14.56193668, 26.32204399
22.25028090, 9.61509230, 16.88564479, 10.27740240, 18.95323191, 30.41545660, 12.63328936, 29.33981936
26.50094338, 9.42337519, 14.93736925, 10.52853266, 13.05756486, 31.22258798, 12.00312459, 32.48461174
22.11164851, 6.96957674, 12.13260071, 10.32714869, 10.88462218, 28.29443408, 12.92574949, 27.92400401
17.35511452, 6.14817046, 10.24695077, 9.56294934, 10.02870879, 30.70179148, 12.24438647, 22.55881203
16.62753740, 7.62725377, 15.04077791, 10.18331969, 9.08707874, 29.33044493, 14.95326051, 23.72709422
19.26525370, 13.25990196, 27.74752241, 16.09347694, 11.42694185, 34.87728487, 15.67801008, 33.56113824
22.60420315, 13.44990706, 29.07662291, 16.30567386, 11.88065655, 35.41080344, 16.67708008, 34.90737744
23.83065253, 8.79062000, 21.05469069, 12.82575534, 12.43080850, 33.67862824, 17.90460835, 35.33270440
23.98749674, 8.48969964, 18.89245881, 13.16149688, 13.39309524, 38.87126188, 16.72199151, 34.55141097
20.97260117, 9.70953140, 30.08529541, 14.79864859, 12.13672114, 33.00757489, 15.21923126, 21.89463405
21.83975732, 9.97496867, 34.04886195, 14.07657629, 11.34790730, 26.56971961, 15.51692624, 27.98347727
28.71018983, 8.92048205, 22.36291573, 10.93046202, 11.46625484, 23.29162940, 14.50603323, 35.47076261
29.11099449, 8.80624778, 24.70172059, 11.74414748, 12.84425942, 25.64517498, 11.98019199, 34.81738072
24.05046777, 9.27496631, 29.49830504, 13.76317551, 15.13026768, 35.48415139, 12.41168804, 32.19976708
20.42792207, 8.29457654, 23.75815649, 12.50499900, 15.79319474, 36.39265036, 12.99326749, 26.72592374
17.50428519, 7.81984655, 23.89665249, 10.83974169, 14.29248054, 34.02976638, 15.00916387, 29.38026549
15.73769360, 8.61684397, 25.24282076, 14.01249442, 12.26988183, 29.72625102, 13.42013413, 32.53805464
14.46979613, 7.70551750, 19.41713161, 13.30695307, 10.67590746, 22.80405666, 10.37424696, 30.94834406
15.00416609, 6.72681202, 14.69608791, 9.19782583, 10.77032961, 33.09153970, 14.72497878, 28.35577543
15.31828972, 7.26808090, 16.82408987, 9.58384057, 12.49699964, 35.45419580, 15.94913791, 28.36238706
16.11210725, 6.81725751, 17.44634632, 11.12766822, 13.54806259, 29.69385458, 12.42678559, 30.96086239
17.88854382, 6.31466547, 18.62927803, 12.91704301, 12.75343091, 27.58033720, 14.80878118, 26.52263185
18.77698059, 7.98749022, 21.70253441, 14.23551896, 12.39959677, 32.56954099, 15.71782428, 26.27879373
17.53425219, 7.91833316, 18.92815363, 11.50977845, 10.29198717, 33.76240513, 13.89154419, 27.22728411
18.43976681, 7.17983287, 14.08811556, 8.90224691, 9.93981891, 25.20069443, 15.26188062, 25.91428178
18.49797286, 6.58407169, 14.48447445, 8.72926114, 9.78008180, 24.20433845, 18.11974062, 26.82349716
17.19229479, 7.20416546, 17.12235381, 9.12414380, 13.61065759, 26.06098617, 19.35781496, 22.46330341
17.22788437, 8.06690771, 18.32962084, 9.96870102, 15.27252435, 26.34245623, 15.10380747, 24.22498710
14.85934050, 7.50166648, 17.05579081, 10.25670512, 11.88381252, 29.48558970, 12.29532431, 24.51173188
11.67047557, 6.29682460, 13.27026752, 9.63846461, 12.11816818, 33.30465433, 14.06502755, 20.78220393
17.28944765, 5.06458290, 12.86953768, 8.68907360, 11.40723455, 30.09609609, 13.26649916, 26.90167281
17.37239189, 5.81592641, 13.50277749, 9.15696456, 12.62933094, 25.92682009, 12.68759236, 25.07887557
11.61034022, 6.69328021, 11.32695899, 9.86154146, 12.87730562, 27.10765575, 15.04908635, 18.18103407
13.66382084, 5.82880777, 9.52365476, 8.55862138, 11.54989177, 31.19975961, 15.58605146, 21.12048768
16.01795867, 5.21536192, 9.31799335, 6.17049431, 15.74245851, 38.06704612, 13.45083641, 26.24499952
14.75296580, 5.61916364, 11.22608569, 6.33640276, 15.17646204, 32.68868306, 12.20040983, 26.00288446
19.86957473, 5.94558660, 12.42678559, 7.18853253, 11.91322794, 22.92269618, 16.52044188, 24.29866251
20.18415220, 5.60133913, 10.94874422, 8.20670458, 12.87536407, 32.92795165, 16.51968523, 25.49068457
13.68941197, 5.47494292, 9.37416663, 7.66159252, 12.06958989, 33.78942142, 11.84377474, 23.06566713
13.43688952, 6.37181293, 12.30650235, 8.14401621, 10.80277742, 29.54572727, 12.43181403, 21.02736313
12.46093897, 5.79870675, 10.84089480, 9.01803748, 11.15347479, 30.01624560, 12.06855418, 18.56138465
12.27497454, 5.73149195, 9.10494371, 8.51322501, 11.87013058, 28.74412984, 11.05780268, 19.44415079
12.50099996, 5.97076210, 10.37063161, 6.77495387, 11.18928058, 31.61684678, 12.95472887, 21.64370578
11.42803570, 5.72057689, 11.59633563, 7.06929982, 10.49404593, 30.82855819, 16.47042805, 22.44548952
12.94314490, 5.23688839, 10.98407939, 8.11634154, 10.84550598, 28.44468316, 16.60496914, 20.93979465
12.81112798, 4.63680925, 9.41010096, 8.56154192, 14.93736925, 29.76449227, 17.91717054, 21.39801393
11.21383075, 5.97076210, 10.25548634, 9.34612219, 16.11598585, 29.31680406, 17.49428478, 23.51223086
14.04457191, 6.44592895, 10.77265056, 9.14330356, 16.71301888, 34.52897334, 12.35516086, 28.60812822
14.09787218, 5.35256948, 9.23038461, 7.47328576, 15.38911953, 36.56945447, 13.71768931, 26.26309197
12.57676429, 5.12591455, 8.40981569, 6.62947962, 12.62933094, 29.47456531, 13.41454435, 16.85823241
14.19859148, 5.12835256, 9.07193474, 8.50734976, 13.22119510, 28.51797679, 12.09752041, 21.07723891
13.89694211, 4.74868403, 8.10401135, 9.12962212, 13.68667235, 30.90469220, 12.43885043, 25.40620003
13.81756129, 4.89387372, 9.96870102, 10.12175874, 14.98999666, 33.69940652, 12.55786606, 24.08941676
13.92300255, 4.87339717, 10.52497031, 9.94359090, 13.32572700, 32.10841011, 12.58769240, 22.03463183
13.57295104, 4.45533388, 10.13410085, 9.40478602, 12.52697090, 27.55585237, 11.21271600, 23.79075451
17.15735994, 5.37819672, 11.31702258, 9.73781290, 14.01962910, 36.36309943, 11.27497228, 25.07089947
16.98970276, 5.14781507, 10.15258588, 7.13792687, 13.43223734, 41.18525221, 11.35561535, 23.31201407
15.61569723, 4.36463057, 8.78919792, 6.02079729, 11.05667219, 31.46347088, 10.57709790, 25.47449705
14.23990871, 4.17731971, 8.36958780, 7.24223722, 12.83257574, 23.76499527, 12.61744824, 24.50051020
10.55106630, 3.48926926, 7.24396300, 7.58287544, 13.42292815, 26.97406161, 12.67379186, 20.03060159
15.42238633, 4.16833300, 7.77978149, 9.69664891, 10.18945533, 25.72693141, 13.08625233, 24.51122192
15.69474434, 4.43283205, 7.52994024, 9.93478737, 9.98248466, 32.77842278, 13.56097342, 24.12778481
11.28494572, 3.94334883, 8.77781294, 8.00000000, 12.60654592, 35.62934184, 12.26580613, 18.94795503
11.73669459, 4.26907484, 9.79413090, 9.16105889, 11.68653071, 29.78170579, 12.04989627, 15.98984052
11.78664498, 6.01040764, 9.96619285, 10.38869578, 9.12003289, 29.39515266, 12.59960317, 17.79747173
18.10662862, 6.52303610, 9.76217189, 10.54039847, 11.43896848, 30.17366401, 13.92120684, 19.53970317
18.25034246, 5.29622507, 7.43639698, 9.10082414, 12.33896268, 27.39069185, 19.15137071, 19.94805755
11.77921899, 4.93203812, 6.72495353, 7.19548470, 11.03290533, 26.78385708, 17.84866942, 19.47626761
13.00480680, 4.87083155, 8.58195782, 6.62004532, 9.33273808, 26.55183609, 10.52615789, 21.64601580
15.52014820, 4.75131561, 9.30725523, 6.63324958, 12.26070960, 20.09850741, 10.27983463, 21.81857007
15.56438242, 4.68774999, 8.00936951, 7.38579718, 14.80540442, 25.44749497, 12.32172877, 18.56340486
15.06900793, 4.19523539, 7.80864905, 6.52686755, 12.14289916, 26.99027603, 13.61983847, 21.66333308
15.82482227, 4.10487515, 8.23103882, 7.55479980, 9.16378743, 27.96962638, 13.48425007, 23.68596631
19.14745414, 4.78800585, 7.66322386, 8.35014970, 10.09702927, 27.65998915, 11.79724544, 26.87656972
22.84184756, 6.26697694, 8.32015625, 10.44988038, 11.52497289, 22.09128788, 9.47628619, 25.63006048
21.29730030, 6.16238590, 10.00749719, 11.23498999, 10.52378259, 27.16615541, 12.42779144, 18.29344145
16.98381583, 4.81663783, 9.86661036, 9.20461841, 9.51577637, 31.19014267, 15.59086271, 16.99926469
13.97318861, 4.22196637, 9.85773808, 10.02621564, 12.83549765, 29.91613277, 13.29285522, 23.55737676
14.87111294, 4.75657440, 8.39642781, 10.58654807, 14.24692949, 28.23251671, 9.66048653, 26.56736720
13.91671657, 5.66568619, 8.28402076, 8.79488488, 13.57847561, 27.01758686, 11.00568035, 20.26696820
10.94417653, 5.14781507, 11.11080555, 8.79346348, 11.90798052, 20.29100786, 11.50000000, 18.37797595
14.73940297, 4.66100847, 10.42952540, 10.28955781, 8.46020094, 25.50392127, 9.74679434, 22.49222088
13.35290231, 4.19523539, 8.54400375, 10.15997047, 9.56817642, 29.29334395, 7.40945342, 18.64336343
15.27088734, 4.58530261, 9.36883130, 8.85861163, 10.02746229, 24.22963062, 7.38748942, 18.88451747
18.48107140, 5.47494292, 9.60468636, 8.53375650, 10.31382567, 27.63874093, 10.75639345, 19.36878933
15.39642816, 5.32916504, 8.22344210, 7.72981242, 11.87328935, 29.58758185, 14.88875415, 16.92704936
14.83829505, 5.11615090, 10.10692832, 7.17286554, 12.36224090, 25.06391829, 13.09580085, 19.24512925
14.98582664, 4.49444101, 10.77961038, 8.10709566, 12.00312459, 24.25850366, 9.68116728, 20.66095351
12.59364919, 4.71699057, 9.92093746, 7.78781099, 10.95216874, 26.31444470, 10.06479011, 22.07090845
13.79311422, 4.53596737, 10.80856142, 8.83742044, 9.75961065, 26.24404694, 12.27395617, 24.22601907
14.20651259, 4.00936404, 11.60172401, 10.07472084, 10.24207010, 24.66272491, 15.96871942, 24.33053637
12.91026723, 4.71963982, 10.40552738, 9.22225569, 13.35571039, 28.58452378, 18.01874024, 20.07299180
15.61729810, 5.32916504, 8.27345152, 8.86002257, 14.26884719, 31.61566068, 14.82902559, 18.08797943
16.95213851, 5.26782688, 7.92464510, 8.68187768, 13.56005162, 28.95859113, 10.06354808, 22.92814864
16.59668642, 5.36190265, 7.83741029, 7.06399320, 10.82935825, 25.93983423, 12.99230542, 22.51110837
14.47584194, 5.42908832, 8.31564790, 7.10281634, 9.35681570, 26.17441499, 14.40138882, 17.17192476
12.98075499, 5.20336430, 7.24051103, 7.87083223, 10.49761878, 22.57764381, 11.28605334, 17.68120471
14.13240956, 4.55521679, 5.42908832, 7.70064932, 10.17349497, 18.46889277, 13.48054153, 20.71774602
14.24341953, 4.26907484, 7.82783495, 7.26636085, 12.17476899, 24.55504022, 14.64240417, 19.60867155
15.86584382, 4.95479566, 7.76530746, 6.90108687, 12.01145287, 26.45515073, 10.37545180, 25.27746032
17.25181150, 4.78539445, 6.35413251, 8.60523097, 12.03328717, 24.61402039, 12.81698092, 31.43405796
18.16865433, 4.85540935, 7.44311763, 9.37016542, 11.92371586, 24.90281109, 14.18890412, 30.86867344
17.14861510, 5.69209979, 7.20416546, 7.46324326, 11.53364643, 24.34337692, 12.33592315, 27.79613282
14.58338095, 5.89703315, 6.48266920, 7.69577806, 12.48499099, 22.51277415, 10.98180313, 23.75499947
16.73469450, 5.11370707, 5.78575838, 8.53375650, 11.65547082, 25.57244611, 7.92148976, 26.62799279
15.99218559, 4.79583152, 5.22733202, 6.98391008, 12.10578374, 28.53419002, 8.69338829, 25.52449804
13.85640646, 5.04479930, 5.08674749, 6.82641927, 12.67675037, 27.65049728, 8.72782905, 24.63280333
16.49469612, 4.68241391, 4.84252001, 7.44311763, 12.81795616, 30.04038948, 8.60523097, 30.34509845
17.52284224, 3.90512484, 5.13565965, 7.29554659, 12.85496013, 25.48234683, 8.50881895, 28.61380786
15.15833104, 3.61593695, 5.47494292, 7.13617545, 12.43784547, 26.25023809, 7.25430906, 22.58705381
14.13329403, 4.75394573, 4.95731782, 6.42845238, 12.13775103, 26.77638885, 10.43671404, 24.98549579
17.01249541, 4.96739368, 4.76182738, 7.15017482, 10.76452507, 20.38259061, 10.24939023, 24.98249387
17.81852968, 4.79322438, 5.76628130, 7.13967786, 8.59651092, 26.31159440, 7.43135250, 23.63736449
14.61762635, 4.24558594, 5.46122697, 7.20763484, 8.24166245, 25.63883773, 7.72819513, 21.44119866
12.19118534, 3.49284984, 4.12916456, 7.27839268, 10.62073444, 23.09004114, 6.76572243, 19.19505145
13.62626141, 3.56721180, 5.77494589, 7.11863751, 11.41928194, 22.73983289, 10.27131929, 20.93322718
14.10407742, 3.49642675, 7.76208735, 6.92278846, 10.65715722, 24.27498713, 12.33490981, 24.51275178
15.76626145, 4.12916456, 9.39015442, 8.05450185, 11.39956140, 23.25994411, 9.97371546, 26.28354999
17.23948955, 3.90192260, 9.81835017, 8.87975225, 11.78770546, 19.77435208, 8.22344210, 22.71453279
15.57321418, 4.53045252, 9.49605181, 8.51322501, 11.05441088, 24.60030488, 7.59605161, 19.37330638
13.48425007, 5.12835256, 8.89662857, 8.80482822, 9.60338482, 22.67763215, 8.71923162, 14.24956140
14.67736352, 4.87852437, 9.31262584, 9.75448615, 9.40345681, 16.09736003, 8.05450185, 21.30140840
13.73408169, 4.43846820, 10.75174404, 9.84250984, 11.96035117, 17.89413312, 7.65832880, 24.04786893
11.03063915, 3.59513560, 9.84631911, 9.04571722, 12.28006515, 20.84466359, 8.67755726, 20.60946385
15.29051994, 4.92188988, 10.72263960, 9.48419738, 12.50299964, 22.95375786, 8.02807573, 22.62741700
16.50908841, 4.93963561, 9.50394655, 8.20975030, 12.35414910, 23.26424295, 6.54025993, 27.56583030
13.17004176, 3.27490458, 8.17771362, 7.90253124, 10.72147378, 29.00431002, 5.73803102, 24.95245479
11.86591758, 3.37268439, 9.79030132, 9.31933474, 12.92284798, 29.58377934, 6.50768776, 19.20156244
11.37431317, 3.62629287, 8.46463230, 8.14401621, 11.40833029, 21.60381911, 5.89067059, 18.46076921
10.07348003, 4.21010689, 7.57957782, 6.65206735, 7.75080641, 19.94304390, 5.14295635, 17.33349359
11.22608569, 4.50277692, 6.22896460, 6.07865117, 9.49736806, 18.89510519, 5.07937004, 18.76033049
12.75245074, 4.03112887, 6.84287951, 6.28490254, 10.37545180, 23.27498657, 5.78791845, 22.19909908
13.67936402, 4.15632049, 9.92471662, 6.30476011, 10.18700152, 24.57132475, 7.11336770, 23.92958420
14.77328670, 4.81923230, 10.42712808, 8.45133126, 10.63367293, 22.09694549, 6.96419414, 18.49391792
16.68831927, 4.35889894, 8.78777560, 9.05814551, 12.48799423, 24.82841115, 8.34865259, 17.57839583
17.22643318, 3.69797242, 7.21110255, 6.88658115, 13.40335779, 27.03839862, 10.90642013, 22.86208652
14.61078369, 3.80788655, 7.63053078, 7.80544682, 11.75691286, 27.42854353, 9.48551527, 20.80624906
12.96533841, 4.48051336, 10.32230594, 8.41724420, 10.20171554, 23.73868151, 6.93000722, 14.48620033
13.53790974, 4.68241391, 10.64542155, 8.73069299, 10.63014581, 21.11338438, 7.99218368, 18.73032301
14.69353599, 4.34741302, 10.41513322, 8.23103882, 12.33693641, 24.27395724, 9.27092228, 23.18889821
14.56708619, 5.71182983, 11.38310151, 6.80991924, 13.25235828, 23.45314478, 8.28402076, 23.74815782
13.86271979, 5.23927476, 10.25914226, 7.61413160, 11.30597187, 20.25894864, 8.32165849, 23.02009991
14.58338095, 3.82099463, 10.11434625, 8.75071426, 10.02122747, 21.22734086, 10.21273715, 21.80137610
14.98082107, 4.03422855, 10.48689659, 8.93168517, 11.93419457, 25.72644554, 9.55771939, 20.25833162
13.28909327, 3.58120092, 8.23103882, 8.13172798, 10.56409012, 25.76480157, 11.55097398, 20.27868339
14.04991103, 3.84057287, 7.64852927, 7.04982269, 9.06228448, 19.38362711, 10.83512806, 22.43880567
16.71750579, 4.18330013, 8.17771362, 8.15475322, 12.32882801, 20.49024158, 7.18505393, 24.40645406
16.55596569, 4.38748219, 8.50000000, 8.56446145, 12.80234354, 25.70019455, 8.05915628, 22.13933152
16.84562258, 4.49165894, 9.17196816, 8.87130205, 11.13889582, 28.65309756, 11.46734494, 21.71577767
15.56036632, 4.90407993, 9.69535971, 9.50394655, 11.90903019, 28.88641549, 13.18237460, 25.88484112
12.77497554, 4.41021541, 10.53565375, 8.53375650, 13.14058598, 27.74256657, 10.65950280, 25.23885893
14.56365339, 3.48926926, 9.07744457, 7.42798761, 12.60555433, 26.71843933, 7.40439059, 22.04710865
17.12819313, 3.78483817, 8.18993284, 8.08548081, 15.12944150, 24.63026593, 8.28552955, 24.27086731
16.55067974, 4.15932687, 8.02028678, 8.49705831, 15.00916387, 23.22068044, 8.38152731, 26.52545947
12.62041996, 3.93064880, 7.50999334, 7.17460800, 12.18810896, 21.70426225, 7.36545993, 20.94456970
10.63249735, 3.36154726, 9.67470930, 8.69913789, 12.18503180, 21.97953594, 7.62725377, 15.62049935
11.92790845, 3.77491722, 10.93160555, 9.01387819, 10.68994855, 25.04246394, 7.17460800, 18.05754690
12.96148140, 4.40170422, 9.74166310, 7.63380639, 10.90527395, 26.09501868, 8.43504594, 26.23451924
13.84196518, 4.08656335, 9.96870102, 7.99218368, 10.72730162, 25.60224600, 8.87834444, 24.72549292
13.77406984, 3.96232255, 11.06006329, 9.02773504, 8.77068982, 22.26768960, 8.82892972, 17.60255663
14.69948979, 4.46654229, 10.28712788, 8.83459111, 9.11729126, 24.42949038, 7.66811581, 22.62133948
16.87898101, 5.96028523, 10.49166336, 7.86288751, 10.23474475, 24.39057195, 6.96060342, 25.88484112
19.01972660, 5.93927605, 8.67035178, 8.60668345, 12.37941840, 27.60480031, 7.82144488, 23.50957252
20.51523824, 4.56344168, 7.91359590, 9.52759151, 12.60456267, 33.88436217, 7.58452372, 19.03417978
18.06377591, 5.08428953, 9.19782583, 9.05814551, 10.38869578, 30.34345069, 7.04804938, 17.61604382
13.51943046, 4.70903387, 8.65736681, 7.90727513, 11.08151614, 24.28734238, 6.28291334, 15.73451620
13.68484563, 3.54612465, 7.62069551, 6.94622199, 10.97838786, 21.09028212, 5.91185250, 16.48863245
14.83239697, 3.79473319, 7.20590036, 6.74907401, 11.89117320, 26.45042533, 5.90127105, 18.97695971
14.23288446, 4.89642727, 8.42763312, 8.50588032, 13.80579588, 27.11549373, 7.33314394, 19.28017116
14.39444337, 4.35603030, 7.07460246, 7.92622230, 13.17858111, 22.02441827, 8.20822758, 20.06427173
18.10248602, 3.29013678, 7.55645419, 6.88113363, 11.62647840, 25.42144764, 8.76498716, 23.89560629
17.76724514, 4.03112887, 10.34770506, 8.07774721, 10.93046202, 31.79347417, 10.31018914, 22.28676737
16.49696942, 4.50277692, 11.08602724, 8.05760510, 11.63507628, 31.19575292, 11.11980216, 21.20377325
19.11216890, 4.79322438, 10.53684013, 8.69626357, 12.17066144, 23.97915762, 10.15627885, 22.49722205
19.43772106, 4.39317653, 10.33561803, 8.45576726, 11.02723900, 20.20396001, 8.35613547, 16.95877354
15.77656490, 3.91790760, 10.50238068, 6.58027355, 8.93168517, 22.91233292, 9.20733403, 15.84376849
14.15538767, 5.06458290, 8.79204186, 7.27839268, 10.22985826, 26.40643861, 11.54664453, 18.64738588
13.24197870, 4.75394573, 8.87693641, 8.82751381, 11.23053872, 30.74329195, 10.88577053, 18.84874001
13.85730854, 4.46654229, 10.92474256, 8.76926451, 9.20869155, 29.99749990, 7.56472075, 17.00882124
20.29963054, 4.51109743, 11.34680572, 7.45150991, 8.60523097, 26.33913438, 7.85811682, 21.37931243
18.98025290, 3.25960120, 8.59360227, 8.09166238, 9.95991968, 24.06709372, 10.11187421, 23.30772404
13.55636382, 3.29772649, 6.58976479, 8.03585714, 15.32807881, 26.15721698, 9.93352908, 17.51856158
15.31339283, 3.56721180, 8.66890997, 7.63544367, 14.41266804, 26.76191324, 8.50294067, 16.07171428
14.72328088, 3.89230009, 9.66307405, 8.01093003, 7.21803297, 20.35374658, 8.71062570, 17.65219533
18.32893887, 4.74605099, 10.06603199, 7.42293742, 8.71923162, 18.91229759, 9.31933474, 19.66214637
19.55888545, 4.96487663, 8.93028555, 8.17618493, 12.22701926, 21.87521428, 7.63708059, 20.52133037
15.34763825, 4.67172345, 7.69415362, 8.80624778, 13.14153720, 21.89120828, 7.96084166, 19.14745414
16.08493084, 4.96235831, 10.93960694, 7.94512429, 12.63625736, 27.59257146, 11.96139624, 21.28144732
15.05157799, 5.42908832, 12.29329085, 7.28010989, 12.79843740, 27.34318928, 13.93108036, 20.04432588
11.43896848, 5.14295635, 10.48332008, 8.05139739, 11.12429773, 21.32662655, 11.42147101, 17.06531570
9.93101203, 4.90153037, 10.61720302, 9.42204861, 8.92048205, 23.45794109, 8.11942116, 17.17701953
13.60330842, 5.21775814, 10.13286731, 9.70824392, 9.53939201, 25.29130285, 10.76568623, 23.09870126
18.63196179, 5.14781507, 8.83459111, 8.15475322, 10.62426468, 27.80287755, 11.74734012, 27.80197835
16.63881005, 4.20416460, 7.01605302, 7.14667755, 10.62426468, 30.84963533, 9.47364766, 21.37229515
13.27968373, 3.80131556, 5.64579490, 7.17112265, 13.09198228, 28.20106381, 7.32973397, 21.46450558
13.06713435, 4.46094160, 5.52946652, 7.92937576, 12.71711445, 20.34391801, 6.04152299, 23.07975303
13.25613066, 4.15030119, 7.15367039, 7.77817459, 12.14084017, 28.13671978, 7.57627877, 17.04552727
14.25394682, 3.28252951, 8.39642781, 7.92148976, 12.22497444, 30.56591239, 8.55862138, 20.81585934
15.45234610, 3.17411405, 7.27667506, 9.14193634, 13.02881422, 27.28781779, 8.49852928, 27.98213716
15.83587699, 3.53199660, 6.63136487, 8.13941030, 13.25235828, 26.58947160, 8.76641318, 26.23261329
12.10991329, 3.39116499, 5.77278096, 6.83373983, 9.66178037, 28.82013185, 8.59214758, 18.94201679
11.90588090, 3.51069794, 5.59910707, 6.99642766, 8.93448376, 33.33954109, 8.99166281, 18.83547185
11.94884932, 4.11703777, 9.25877962, 6.95161852, 11.31923142, 29.22670012, 10.67707825, 18.13904628
11.69722189, 4.09878031, 10.22374687, 6.41872261, 13.08816259, 27.42216257, 9.89570614, 17.26557268
12.47597692, 3.83405790, 7.62233560, 5.74020906, 14.17127376, 29.38792269, 9.26552751, 15.85244461
14.05080069, 4.49722136, 7.15541753, 6.69514750, 15.38180744, 29.54657341, 9.11317727, 18.47498309
14.01517035, 4.26028168, 9.67083244, 8.15475322, 13.51018135, 27.05180216, 6.25899353, 19.38943011
11.53581380, 3.56721180, 9.68245837, 8.05915628, 10.54158432, 20.37523006, 6.35806574, 14.71903529
11.30376044, 3.74499666, 6.81909085, 6.31268564, 10.93617849, 24.45046012, 8.37257428, 19.73448758
14.04724172, 4.05894075, 7.91517530, 6.09507998, 11.45425685, 26.70767680, 8.64291617, 26.54571529
13.03265130, 4.10487515, 7.73950903, 6.63513376, 10.04987562, 19.28276432, 7.38579718, 23.83799488
10.79467461, 3.26726185, 7.20416546, 6.48459713, 9.03050386, 22.44716018, 7.96868873, 17.19011344
12.21065109, 2.86356421, 6.95880737, 6.56315473, 8.66746791, 24.25798837, 8.05139739, 21.49244053
14.50172404, 3.75166630, 5.15024271, 6.81909085, 7.85652595, 20.70386437, 6.58786764, 29.20701970
14.54561790, 4.08962101, 7.17112265, 5.93295879, 8.23103882, 21.75316069, 6.92820323, 29.31168709
12.89670501, 4.15932687, 8.33816527, 5.78575838, 9.46176516, 23.34684133, 7.68602628, 27.26857165
13.35290231, 4.57984716, 8.08084154, 7.51165761, 9.41541290, 19.97498436, 7.75403121, 25.91958719
12.55587512, 4.41304883, 7.98905501, 6.83191042, 11.50108691, 21.62406067, 7.86765531, 19.35587766
13.44432966, 3.44963766, 7.37394060, 5.19374624, 11.31812705, 24.83294183, 6.53261050, 20.25092590
14.00535612, 3.20546408, 6.79705819, 5.77278096, 8.36211696, 22.91069619, 5.38516481, 21.63619652
11.24722188, 3.77160443, 9.61509230, 8.40981569, 8.90505474, 23.24005164, 7.00892288, 17.92275090
11.64044673, 4.21307489, 11.97914855, 9.31933474, 9.48683298, 22.76126095, 6.99464081, 20.06676357
17.33781993, 4.40738017, 10.50476083, 8.05605362, 11.78452375, 23.68121618, 7.55976190, 28.45830283
19.49487112, 4.97744915, 8.36062199, 7.96084166, 12.56781604, 29.56053112, 10.28955781, 29.86846163
19.94743091, 5.91396652, 8.53082645, 8.36510610, 11.63292740, 30.95319047, 10.22496944, 24.54129173
17.99027515, 5.41987085, 8.01405016, 8.10555365, 11.19821414, 26.28212320, 8.64146978, 27.60253612
16.79359997, 4.47213595, 7.90253124, 7.26119825, 9.97747463, 24.82589374, 8.20822758, 27.46952857
18.22635454, 4.13219070, 6.68767523, 6.13595958, 9.83488688, 24.85658866, 6.85200701, 22.55992021
15.10049668, 3.59165700, 6.28689112, 6.70261143, 11.86802427, 24.93190727, 5.01248441, 19.72054766
16.27037185, 4.16533312, 8.00312439, 7.53989390, 13.23064624, 24.15005176, 6.74722165, 16.96540598
20.13082214, 4.89387372, 9.36349294, 7.80064100, 14.01873746, 23.61302607, 8.46167832, 21.81857007
20.79302768, 4.37607130, 9.07193474, 7.75886590, 11.81101181, 22.58705381, 8.18077013, 26.28973184
18.68756271, 3.65376518, 7.50832871, 7.54155156, 9.42867965, 23.02118589, 6.83373983, 23.29270272
15.97419795, 4.74605099, 8.90645833, 8.21583836, 9.31262584, 24.43460661, 6.44980620, 18.75366631
15.31992167, 4.90917508, 9.78519290, 8.48528137, 10.78540681, 27.05365040, 7.72334125, 18.56677139
13.89694211, 4.32434966, 8.60668345, 7.69090372, 10.52734534, 24.45914962, 8.46463230, 19.12785926
15.61089363, 3.65376518, 8.42911621, 6.76017751, 8.17006732, 15.56920036, 7.87242021, 26.45420571
15.82640199, 3.17804972, 8.91767907, 8.05605362, 10.76916896, 19.06108601, 7.51997340, 27.96292188
13.29661611, 4.77493455, 16.91449083, 10.60542314, 10.42113238, 21.59340177, 7.51165761, 21.98351655
14.39357496, 5.39444158, 19.08074946, 10.64424727, 9.27092228, 23.55206997, 8.93168517, 20.14820091
14.04991103, 4.41871022, 12.33085561, 8.73069299, 14.09875881, 26.94902596, 13.45734000, 18.22498285
15.07066687, 5.09656747, 13.18427093, 8.05760510, 15.45558152, 25.60615160, 13.98391934, 16.78913339
15.16245363, 7.28010989, 22.22386105, 12.11094546, 13.22308587, 29.37856361, 9.97997996, 18.40719968
14.10673598, 8.98888202, 29.37984003, 17.75598491, 11.99479054, 32.28467129, 13.40149245, 18.33916574
15.44911001, 9.51971638, 28.28117749, 18.88186961, 11.07135945, 33.10060422, 15.08227436, 20.87522455
19.57166319, 9.75064100, 26.79598851, 17.64936259, 10.95445115, 28.55083186, 13.81484709, 21.60381911
18.12732744, 11.20379400, 31.23739746, 16.47573974, 9.77241014, 27.94369339, 13.16909260, 17.85077029
13.23159099, 10.14642794, 27.12056415, 12.42779144, 8.53814968, 31.33289007, 12.02393446, 21.08850398
15.46366709, 6.81175455, 18.91560203, 10.77497100, 10.04738772, 24.40338091, 11.69294659, 21.92031022
16.01561738, 7.00000000, 20.61249621, 13.08338641, 10.82935825, 20.30640293, 9.94107640, 20.67063134
16.28112404, 7.64689479, 19.37782238, 11.50108691, 10.26766770, 26.19589663, 11.63077813, 19.87900903
14.48447445, 6.62759383, 13.78858223, 9.22767576, 13.92030890, 28.69712529, 12.61942946, 16.84859045
14.67906673, 5.59464029, 10.84089480, 10.46900186, 15.22826320, 29.38324352, 11.67261753, 17.30245647
13.90773166, 5.57897840, 10.17103731, 9.15423399, 13.57295104, 32.82834141, 10.14642794, 15.26188062
10.51427601, 5.83523778, 14.52497849, 8.99027252, 13.04128061, 32.17646656, 9.33809402, 13.00672903
12.94314490, 5.49090157, 15.30522787, 9.85393322, 11.93628921, 26.88447507, 9.05400464, 19.13504638
14.73261688, 5.08183038, 14.06058320, 9.02358022, 11.59956896, 29.19203659, 8.87552815, 19.46214274
13.99910711, 5.95399026, 14.97915218, 8.61539320, 11.93105192, 27.50000000, 10.81434233, 16.26268735
11.55205609, 6.16238590, 13.25141502, 8.35912675, 9.89065215, 17.03452377, 9.72625313, 14.62361105
12.42577965, 5.15266921, 12.70432997, 10.77265056, 16.32712467, 20.72679425, 6.75277721, 16.39969512
16.89230594, 5.41987085, 12.48599215, 10.55225094, 18.05270063, 24.92789602, 7.73142936, 22.55437873
20.23610634, 6.08687112, 10.62896985, 6.96598880, 11.99791649, 26.72498831, 12.82283120, 23.22391009
19.06502033, 5.12347538, 8.93308457, 8.19298480, 11.47824028, 25.49362665, 12.76616622, 20.99285593
16.77498137, 3.93064880, 7.05336799, 8.23559348, 11.26166062, 26.97823197, 8.35763124, 16.86786886
15.36473234, 4.34453680, 7.20243015, 6.07042008, 10.49166336, 30.52048492, 8.62988992, 13.83473888
16.19876539, 4.46374282, 8.10246876, 7.52163546, 10.42233179, 25.44258242, 11.90693075, 15.98984052
15.63649577, 4.30987239, 7.69415362, 7.54983444, 11.48694912, 26.35858494, 12.17579566, 19.05649496
17.46568063, 3.94651745, 8.99861100, 6.65770231, 12.14392852, 27.79073587, 9.09670270, 18.90304208
20.59672304, 4.04660351, 11.15123312, 10.13410085, 13.03648726, 23.84848004, 10.50238068, 22.12747161
19.11870812, 4.61248306, 11.49456393, 11.56719499, 13.06139349, 30.17946322, 12.90348790, 23.68174402
16.91005618, 4.97744915, 11.35231254, 9.08570305, 10.58064270, 32.84965753, 10.49523701, 21.27909773
13.48981097, 4.58530261, 9.70953140, 6.84105255, 10.83397434, 32.04333004, 7.91201618, 20.82066281
12.43181403, 4.41304883, 7.23532999, 6.32653144, 10.58064270, 27.43173345, 9.51446268, 19.45893111
14.07391204, 4.08962101, 9.32201695, 6.46529195, 9.46044396, 20.58458161, 9.16378743, 21.63099628
14.93569550, 3.56721180, 10.02621564, 7.82144488, 10.91673028, 22.27217996, 8.85578907, 21.39509290
14.41006593, 4.48051336, 11.34570403, 9.62288938, 10.83858847, 29.49279573, 10.03244736, 20.14509866
13.18901058, 4.86569625, 14.56966026, 8.60668345, 10.48332008, 33.02801841, 11.68439130, 19.61823132
14.55678536, 4.70106371, 13.94274005, 7.81984655, 10.22985826, 26.28022070, 10.68058987, 18.11698098
16.20725146, 5.34322000, 12.76420777, 10.47497017, 10.80277742, 22.13763763, 7.74435278, 15.98593131
16.91892432, 5.39444158, 12.27191917, 10.84781084, 12.12538659, 26.07968558, 9.61379218, 17.83956277
16.99632313, 4.55247186, 9.41408519, 10.08588122, 10.76336379, 27.33130074, 11.33137238, 18.49662131
15.64608577, 4.13219070, 7.06576252, 9.12825284, 9.62808392, 25.77983708, 9.66695402, 14.69778895
16.94550088, 4.07430976, 7.68439978, 7.14317856, 10.23840808, 21.17722834, 8.48086081, 16.61926593
16.68906828, 3.91471583, 9.21683243, 8.07000620, 11.36551803, 20.63673908, 7.95927132, 21.81857007
15.64129151, 3.39484904, 8.41278789, 8.49117189, 11.53689733, 24.05878218, 8.16853720, 21.49069566
18.44112253, 4.25734659, 8.66746791, 7.59934208, 12.92091328, 33.44061901, 8.62264461, 18.74099784
19.90037688, 4.50000000, 8.35613547, 7.59275971, 11.81207010, 35.71624280, 8.63133825, 17.37598918
15.83824485, 3.18198052, 8.73784871, 8.33816527, 8.60813569, 25.86600085, 7.47328576, 14.98248978
13.95886815, 3.36526373, 9.26552751, 8.63712915, 10.24573082, 18.09281625, 5.41063767, 17.05285900
15.52417470, 3.65718471, 7.45989276, 7.36885337, 10.34166331, 24.53110271, 5.82666285, 17.99096996
15.16327801, 3.36154726, 8.85437745, 6.70261143, 10.00249969, 29.48813321, 6.29682460, 22.44827388
17.53068738, 3.67083097, 10.22985826, 7.72334125, 13.37441588, 32.12008717, 11.01589760, 23.22175704
22.56324445, 6.44398945, 16.02732042, 9.35681570, 16.74141571, 42.03599648, 15.97654531, 19.05387100
24.80120965, 6.91375441, 17.64511264, 11.88065655, 15.77101772, 47.31543089, 17.45923824, 21.41202933
22.84513077, 7.51498503, 21.82945258, 16.27190831, 13.76589990, 41.80370797, 16.52119850, 25.78177651