47.60252094, 12.64021361, 7.33825592, 11.74414748, 51.02793353, 24.26159517, 51.41619395, 31.06444913
60.55534658, 12.26886303, 9.17741794, 17.20392397, 45.22084696, 31.40382142, 62.13070899, 55.64058770
62.04433898, 13.01345458, 12.16757987, 31.34206439, 30.99354772, 45.83012110, 71.71105215, 72.09004786
58.14916164, 14.98582664, 14.40312466, 46.86283175, 30.30429013, 58.28700541, 68.45765114, 68.43975453
57.32233422, 15.19457140, 14.93067313, 53.17165598, 30.96166985, 65.72480506, 72.22776474, 63.17139384
60.61847903, 13.71586672, 15.67801008, 44.48651481, 31.42809253, 68.30318441, 77.30620932, 70.38820924
62.23845274, 13.37628499, 23.49468025, 33.96947159, 26.47262737, 65.04901998, 72.92753252, 68.97626403
69.49046697, 20.28423033, 33.13721473, 31.88847754, 14.82228053, 57.32691340, 74.67379058, 69.04636124
63.56728718, 21.22321842, 31.79819177, 36.32113710, 17.21409306, 55.03771434, 77.04998378, 70.45619206
50.75898935, 19.63351726, 33.35116190, 41.33551742, 20.86624068, 54.20285970, 82.27788281, 65.46812201
45.74439856, 19.16507240, 36.92018418, 36.94421470, 20.43281674, 53.19962406, 80.96295449, 66.52574690
43.42637447, 16.45828059, 29.17747419, 31.36877428, 19.48140139, 48.78959930, 67.65500721, 60.41564367
38.86933238, 18.02567613, 24.39415914, 31.49603150, 17.89273596, 40.79705872, 64.01718519, 53.22335014
35.61319980, 16.89526561, 20.65913841, 35.07527619, 16.98602367, 36.79402125, 60.69102075, 52.37150943
33.54176501, 12.52896644, 18.14042447, 31.72577816, 16.46055892, 32.11853048, 52.66806433, 45.49477992
31.40819957, 10.13533423, 17.56986056, 20.12771721, 12.60852886, 25.12468905, 51.34272100, 35.54011818
32.51384321, 9.69535971, 16.30720700, 16.50151508, 11.41271221, 22.88121500, 53.03748674, 40.05714668
32.35699306, 9.15150261, 16.91966312, 18.50945704, 14.79188967, 27.14129695, 55.37418171, 44.96526437
34.36313432, 9.99499875, 15.30032679, 20.68211788, 15.42400726, 26.43198820, 58.90458386, 44.98944321
43.03806455, 9.92723526, 14.37967315, 19.46021583, 15.55152726, 24.89025914, 52.52856366, 54.15510133
39.54491118, 8.21583836, 11.98749348, 26.14526726, 15.39724001, 28.75456485, 47.26891156, 49.47196176
32.34192326, 9.19510739, 13.00576795, 28.38881822, 16.47573974, 25.62859731, 55.16339366, 36.50787586
29.11829322, 8.70488369, 12.96244576, 17.59616435, 17.74189956, 26.17919021, 49.11288018, 32.28312253
30.21009765, 9.19918475, 18.42688254, 25.95139688, 19.42163742, 34.42600761, 49.92269023, 31.03949098
35.87861480, 9.95991968, 20.55602102, 32.83024520, 17.85357107, 36.66810603, 46.05621565, 37.31454140
31.19575292, 12.26988183, 23.65480924, 26.03267178, 13.31540461, 35.19943181, 44.57718026, 35.17598613
34.65147904, 14.09077713, 27.59981884, 18.04508243, 19.15724406, 36.14553914, 53.86859011, 35.25265947
39.88044634, 13.83202805, 34.37149982, 17.03378995, 19.26006231, 35.95483278, 60.20174416, 38.62026670
36.51369606, 18.99144544, 42.07404188, 22.95321328, 20.07174631, 34.07345007, 66.24179194, 35.45102255
36.52499144, 19.96183859, 34.75341710, 22.45495491, 21.32369574, 34.64787151, 66.84066876, 36.53902024
30.26136150, 14.38923209, 24.58912361, 21.34537421, 17.85707143, 34.06280963, 53.80032528, 32.01991568
21.11575241, 12.29532431, 25.25123759, 25.79147146, 17.55918563, 35.27180177, 45.89444411, 21.71865558
29.65172845, 18.43095223, 26.90864173, 26.40123103, 18.16314951, 33.03028913, 55.62418539, 26.96293753
30.74125892, 21.27557285, 25.08286268, 20.53472668, 16.29877296, 33.61696001, 56.33471399, 31.04995974
27.65637359, 25.78613969, 21.53717716, 17.45565811, 17.22353042, 35.62618419, 51.94684784, 29.63401761
27.66360425, 25.46173600, 24.60284536, 17.25470950, 18.23389701, 36.20013812, 46.44943487, 25.55728859
21.64774815, 18.23046900, 24.94193256, 13.00480680, 14.19066595, 37.52699029, 44.84974916, 22.01533556
17.53852901, 17.29667598, 24.44381312, 14.25219281, 15.96950218, 38.71498418, 45.71597095, 20.15750481
20.79002165, 16.67408168, 25.68511242, 16.42330661, 15.78606981, 38.60796550, 41.79144649, 23.36450299
21.70080644, 14.79357969, 24.74166526, 19.43321898, 14.99166435, 35.45172774, 43.17638243, 25.03697266
18.82153022, 13.25424460, 21.07071427, 20.45788357, 14.13064047, 36.23465192, 41.38719609, 18.64336343
15.30604456, 14.07124728, 18.59233713, 17.93878480, 11.22051692, 35.02177894, 33.68567945, 16.61249530
16.58010856, 14.09875881, 16.52498109, 15.51370362, 9.25877962, 35.80153628, 37.34668660, 20.81225600
19.15920144, 12.09338662, 14.50430970, 14.16156771, 15.37123938, 37.94897891, 40.10018703, 23.73762836
18.50135130, 13.76226726, 15.99453032, 13.32478893, 27.22728411, 35.84166570, 36.53662546, 25.14657034
30.50860534, 26.37091201, 18.82153022, 23.05319934, 46.57520800, 31.08576845, 32.95565202, 35.47992390
58.43115607, 40.17741903, 36.92627791, 40.72345761, 61.67758912, 33.38337910, 40.12760895, 52.45140608
61.20334958, 39.82053490, 46.11398920, 44.51179619, 60.98134961, 40.10361580, 41.53402220, 46.77258813
44.29023594, 26.05043186, 43.82265396, 31.82687544, 47.52210012, 39.44426448, 51.41011574, 26.60122178
44.93356207, 19.35200248, 38.56163897, 26.87656972, 32.73759307, 39.04132426, 69.57765446, 34.39113258
41.72589124, 22.35508891, 27.67038128, 23.98176391, 32.39984568, 38.90726153, 62.65520729, 37.21357279
32.87628324, 20.24289999, 22.19740976, 17.03525756, 34.81809874, 36.09293560, 45.63633421, 30.36362956
37.13892836, 19.08205964, 28.47103792, 18.24349199, 26.78432377, 38.47759088, 41.67883156, 33.49253648
38.40279938, 20.59550922, 31.82648268, 18.43298674, 15.83035060, 43.15176706, 40.38099801, 32.59984663
37.59753981, 23.04452213, 25.62664629, 19.04271514, 15.94129857, 40.01468480, 43.95025597, 27.06242783
33.72647328, 20.64884985, 21.29377843, 18.27566688, 16.14930339, 32.07997818, 43.39095528, 26.06626172
26.06722080, 14.14478703, 20.37768387, 14.39618005, 10.64894361, 25.98990189, 39.36908686, 24.61960601
24.24407144, 15.65247584, 18.92881401, 12.14907404, 8.55569985, 27.50727177, 31.50714205, 23.17865397
25.37616992, 15.95070531, 22.39307929, 17.99096996, 11.92581234, 37.46898718, 32.25019380, 21.96474448
25.49509757, 13.61524880, 24.06501610, 18.62525168, 12.28718845, 34.03821382, 37.26962570, 23.07054399
20.51523824, 12.59761882, 24.26365595, 16.11598585, 10.54751155, 25.92344499, 33.87956611, 20.53655278
16.84339633, 12.68266534, 21.87407141, 14.58166657, 10.67239430, 26.20925409, 30.92935499, 15.99140394
16.04446945, 11.57151675, 16.59518002, 14.64240417, 8.40238062, 26.33913438, 30.24690067, 15.11787022
13.39029499, 11.30376044, 16.78243129, 16.45828059, 9.17741794, 24.19090738, 28.23517310, 13.02593567
10.67707825, 11.36331818, 21.93684116, 16.80029762, 9.90328228, 21.17250576, 28.17534383, 10.42233179
10.54039847, 9.80178555, 19.51089439, 13.33510405, 9.52759151, 21.68813039, 29.68122302, 12.46896146
10.98976797, 9.75320460, 18.75833148, 12.54691197, 9.81962321, 17.88784504, 29.69680117, 14.09698549
13.90323703, 9.36082261, 21.39742975, 14.66287830, 8.30812855, 20.09850741, 29.75987231, 13.58951802
13.17004176, 8.18077013, 17.83886207, 13.00096150, 7.85015923, 25.39783455, 24.75833193, 11.76754010
11.00681607, 8.86989290, 16.68757022, 13.00961183, 10.31867240, 28.11449804, 26.64582519, 10.89265808
11.22051692, 10.08835963, 18.03884697, 15.15750639, 10.06354808, 25.07139805, 27.30109888, 11.34129622
10.85357084, 8.90786170, 19.50192298, 15.33623161, 8.01716908, 24.79919354, 21.90890230, 11.86907747
26.29496149, 23.45847395, 40.23027467, 25.84231027, 9.34344690, 33.12136773, 32.68715344, 18.52430835
30.66227324, 27.83792377, 52.59634018, 27.23416971, 10.68410034, 40.63526793, 41.08314740, 19.73448758
22.03973684, 20.32055609, 45.92140024, 18.68756271, 13.01537552, 38.27858409, 40.42462121, 12.48298842
18.12939602, 17.94226853, 37.13960151, 19.42163742, 12.96919427, 28.41258524, 33.96505557, 13.05660752
14.23112785, 15.49919353, 36.83239064, 19.07157571, 9.77752525, 25.17588132, 29.64245267, 12.69054766
13.60422728, 12.17784874, 31.05277765, 15.17975626, 8.51322501, 24.33156386, 27.62516968, 12.40060482
15.75674459, 9.83869910, 20.42547429, 14.92146105, 9.85139584, 22.28564560, 25.28833723, 14.52497849
15.72100506, 8.42169817, 19.14157778, 16.34013464, 10.17349497, 19.45828872, 23.59713966, 11.71857500
16.48332491, 8.28552955, 18.04092570, 15.65886330, 7.87718224, 22.07090845, 24.63331078, 10.49404593
19.85761819, 8.03585714, 18.25650569, 14.79104459, 8.46906134, 22.42320227, 26.24023628, 14.43520003
19.58443259, 8.25378701, 19.45764631, 14.44991349, 9.90075755, 17.11066919, 29.76911151, 15.79952531
14.94908024, 9.12688337, 20.19962871, 15.74007624, 10.49166336, 17.33709895, 33.66266478, 11.91742422
12.57875193, 9.80306075, 19.06305327, 13.65650028, 9.42735382, 17.10116955, 25.26311541, 7.37054950
11.78770546, 10.01873245, 18.21675053, 13.74227055, 10.04241007, 23.00380403, 23.37573528, 7.98592512
10.09083743, 10.62308806, 22.32991267, 18.12525862, 10.51784198, 23.89665249, 24.70273264, 8.42021377
12.51199425, 10.71564277, 23.39818369, 17.79536456, 9.17469346, 16.87675917, 21.04994062, 9.05814551
14.22409927, 8.44689292, 19.95494926, 13.94991039, 8.70344759, 14.22673540, 24.81632527, 8.73641803
13.15199605, 7.52828002, 17.17774723, 13.98213145, 8.32165849, 14.89295135, 25.42685588, 8.52789540
12.49499900, 8.38749069, 16.28342716, 13.13868334, 9.15559938, 21.27733536, 24.19865699, 8.94007830
12.33085561, 9.52234215, 16.70404143, 13.43130671, 9.24797275, 20.97856048, 26.66739582, 8.56008178
14.48015884, 10.38388174, 18.68221079, 15.96715379, 10.64659570, 22.27666941, 35.10448689, 10.86623210
14.79780389, 9.97371546, 17.54565473, 13.85099274, 13.37908816, 28.00357120, 36.46402337, 13.86812893
12.65503852, 8.77353976, 14.32131279, 10.95445115, 14.40138882, 23.78549978, 30.20264889, 12.93058390
11.19709784, 9.12688337, 16.66058222, 12.34098862, 11.31923142, 18.71296342, 27.70875313, 10.68176015
11.38310151, 11.12317401, 17.92484310, 13.08338641, 9.69793793, 20.78220393, 33.93633746, 10.55580409
11.53364643, 11.81101181, 18.90105817, 14.18978506, 10.27983463, 21.01368602, 36.30667983, 11.01703227
9.20461841, 12.38547536, 28.54513969, 15.59967948, 7.91675439, 25.02598649, 33.77943161, 10.12546295
8.60958768, 17.10482388, 36.70626649, 16.18950277, 8.97775027, 28.36370921, 34.34676113, 7.68765244
11.57583690, 19.44865034, 36.01943920, 13.86181806, 10.02746229, 27.92937522, 29.08178124, 8.35763124
11.71217315, 16.03823556, 30.54218394, 11.40285052, 11.37980668, 34.63127200, 27.21442632, 9.04986188
10.20049018, 13.76680791, 28.85307609, 11.13440614, 12.19015997, 33.48208476, 32.55610542, 10.53090689
10.08712050, 12.16655251, 29.86678757, 13.91042774, 11.87539473, 22.19740976, 30.09028082, 11.48586087
9.76729236, 9.36749700, 27.78443809, 15.80980708, 12.07062550, 16.09580691, 25.41111961, 8.93867999
8.21735967, 9.20190198, 22.79418786, 12.61051149, 10.70046728, 16.82334687, 29.52752953, 8.53229160
8.42169817, 9.28439551, 19.60675904, 11.78664498, 9.23444638, 20.24289999, 30.97700760, 10.66302021
8.47348807, 8.72353140, 17.15444549, 12.11610498, 8.12249962, 20.89856454, 27.44631123, 10.33803656
6.17859207, 8.80766711, 18.22223916, 13.67296603, 8.66458308, 20.90454496, 24.55351299, 8.85578907
7.11863751, 9.44589858, 20.14013406, 13.96065901, 8.92048205, 19.07943920, 24.25747308, 7.54155156
8.29306940, 10.10816502, 19.07223112, 11.59310140, 8.20060973, 17.78552782, 26.30351688, 7.18853253
8.21888070, 9.75576752, 18.15901980, 10.82820391, 8.35014970, 17.35007205, 23.45847395, 7.76369757
9.11043358, 9.04986188, 15.73133815, 13.37535046, 7.69415362, 17.21191448, 22.96519105, 9.77368917
10.19436119, 9.01942348, 18.30163927, 13.18332280, 8.00468613, 19.53266495, 30.42778336, 10.84435337
10.22741414, 9.74037987, 25.58857167, 12.76518703, 8.95404936, 22.68479667, 38.08904042, 10.47854952
11.76966440, 10.41273259, 25.28833723, 14.61078369, 8.04052237, 23.76762504, 40.91515612, 12.53495114
11.88170863, 11.33578405, 20.91650066, 13.06904740, 7.98592512, 20.20086632, 35.65739755, 12.91607526
10.42353107, 10.14889157, 21.68697766, 11.04422926, 8.00936951, 16.32099874, 29.91404352, 11.25499889
10.42712808, 8.24469526, 20.26635142, 10.43072385, 6.55934448, 16.98896701, 28.48991049, 10.80624819
14.60308187, 8.57612966, 16.45144371, 12.23723825, 10.20416582, 18.85669642, 31.45592154, 13.36880698
16.75410397, 8.50000000, 17.05139290, 14.54132044, 10.81780939, 21.64659327, 33.97351910, 14.82902559
13.84015896, 8.63133825, 15.33949152, 15.48466984, 8.13019065, 24.32282878, 34.24945255, 12.44989960
12.57676429, 8.42021377, 16.54236984, 18.17071820, 10.72263960, 27.47225873, 31.56422025, 10.85357084
13.63726512, 9.38882314, 16.66358305, 17.15371680, 10.49047187, 31.49523774, 28.34034227, 10.04489920
13.64001466, 10.81087416, 18.20302173, 14.74872876, 8.33516647, 32.11502764, 34.48840385, 9.09532847
13.15009506, 9.95489829, 18.79960106, 14.52067492, 7.65996084, 25.91331704, 41.90972441, 9.29112480
14.31956703, 9.76857206, 15.80110756, 11.57151675, 6.31070519, 22.66991398, 39.60839557, 10.37906547
13.01249400, 12.55687063, 19.40167519, 13.04128061, 7.50333259, 21.95165142, 36.48629880, 11.03177230
12.31969967, 12.14289916, 17.07556734, 15.01166213, 8.49411561, 18.92022727, 35.96352319, 11.01816682
12.19528597, 9.58644877, 18.90436458, 17.72991822, 7.89145107, 19.27303816, 31.90572049, 10.08712050
10.39110196, 8.60523097, 19.72308292, 17.58266191, 6.60492241, 17.82834821, 31.02619861, 9.23173873
11.80360115, 7.53160010, 15.38668255, 12.62141038, 12.27395617, 17.90879672, 28.70017422, 10.53446724
12.57974563, 7.33825592, 15.34356543, 11.51954860, 14.41787086, 19.18137117, 29.08607914, 11.84799561
11.36771745, 7.56967635, 14.24254191, 11.60495584, 10.91329464, 18.59637061, 29.31381927, 11.06119343
8.60087205, 7.34846923, 12.78475655, 13.69488956, 10.42233179, 18.02220852, 21.82544387, 9.35948717
7.59111323, 6.81909085, 13.20037878, 14.62788433, 9.49341877, 20.69722204, 17.71369527, 8.46315544
8.53229160, 8.37854403, 16.34472392, 13.12059450, 7.03740009, 22.06127829, 19.05715089, 7.60427511
8.28402076, 9.67470930, 13.96960987, 12.95183385, 6.34231819, 20.41751699, 24.61148106, 7.60263112
10.22985826, 9.86280893, 11.77178831, 13.19374852, 6.12168278, 18.16865433, 27.80512543, 7.45821695
11.61787416, 9.13646540, 14.93987952, 12.74166394, 7.63380639, 13.95259832, 24.51581122, 8.18229797
14.86186395, 6.64642761, 12.99230542, 12.76518703, 7.48164420, 17.59332260, 24.48673110, 14.72412986
15.36310515, 9.45780101, 16.90340202, 13.29003386, 7.57627877, 21.89120828, 26.15673909, 16.47877423
12.47297078, 10.37665649, 17.09751444, 13.52497689, 7.65506368, 25.64273776, 21.58124185, 12.81893131
11.60710989, 9.63587048, 13.33416664, 15.81929202, 7.15367039, 31.19054344, 27.42444165, 11.03970108
13.10057251, 10.64072366, 14.64752539, 16.23884232, 8.45724541, 28.01829759, 33.19826803, 11.51737817
13.34260095, 8.79346348, 12.73872050, 13.57203006, 8.57467201, 28.38969884, 33.65263734, 10.79814799
9.60858991, 6.51920241, 11.33137238, 12.06958989, 9.41275730, 31.55075276, 38.99455090, 8.39196044
10.15381702, 6.43039657, 10.56763928, 13.29473580, 10.64542155, 29.44953310, 36.74574805, 8.03741252
13.48332303, 6.80991924, 10.65011737, 15.73292725, 9.65919251, 26.25976009, 33.06244093, 9.80178555
11.99062134, 6.95701085, 12.83257574, 16.41569371, 11.37211502, 24.12623054, 33.94517639, 10.11434625
7.30239687, 5.94978991, 11.19486489, 14.24341953, 10.78076992, 20.38075072, 25.67537731, 7.88669766
7.02851336, 4.36463057, 8.92188321, 13.06330739, 6.94622199, 16.19413474, 22.45996438, 7.39425453
7.41451280, 4.46654229, 12.55687063, 12.89767421, 6.72681202, 15.87686997, 25.59833979, 7.20590036
9.30994092, 5.33151011, 12.29939023, 13.65009157, 7.42967025, 12.89185790, 18.78629820, 6.47688197
9.92345706, 6.15223537, 8.79062000, 13.88794441, 7.92464510, 17.10993863, 20.99166501, 8.58923745
8.91627725, 6.72867000, 11.63937284, 12.01769529, 7.71200363, 19.32873509, 27.47271374, 9.27361850
8.30963296, 8.03118920, 11.86802427, 10.23596600, 6.82458790, 15.20279580, 24.45966067, 7.65832880
8.86143329, 8.05760510, 10.78308861, 8.96102673, 6.48845128, 12.41873585, 22.62852183, 8.56446145
9.11729126, 8.17312670, 12.96051696, 10.36701500, 7.02317592, 17.17993015, 29.48346995, 8.31113711
9.06228448, 7.64035339, 12.44588285, 10.20171554, 7.01427117, 18.98552080, 30.14133375, 6.76202632
10.59952829, 6.11759757, 10.47974236, 9.71339282, 9.12962212, 18.90700928, 25.28982009, 7.62233560
9.73524525, 5.89491306, 11.35121139, 10.92016483, 9.56294934, 20.98749628, 25.50931203, 7.95298686
8.14861951, 5.56776436, 13.67479433, 11.76222768, 8.95823643, 20.64703369, 22.63735850, 7.45821695
9.44589858, 7.08519583, 13.07574090, 11.73988927, 8.72066511, 18.01041365, 19.75664445, 8.07619960
11.52497289, 7.93882863, 13.96871504, 11.54880946, 7.52828002, 20.28299781, 27.22636590, 9.30053762
10.93960694, 8.14555093, 16.89082591, 12.39152936, 8.31564790, 21.73706512, 30.74776415, 9.85139584
9.97747463, 8.56300181, 18.85603352, 12.40564388, 8.75499857, 21.94823455, 33.03142443, 10.12546295
11.68118145, 7.66648551, 17.79887637, 12.02705284, 8.37406711, 27.79613282, 31.54956418, 11.05441088
12.12435565, 6.24499800, 15.43210938, 10.90412766, 8.13172798, 29.85548526, 25.39389690, 11.48259553
16.20416613, 6.09507998, 12.73577638, 12.50999600, 8.95823643, 33.45108369, 26.57207180, 11.49782588
16.63355043, 6.71379178, 11.43678276, 13.18237460, 9.59687449, 33.02385501, 32.49769223, 11.14450537
20.11715686, 6.97316284, 12.45190748, 11.32033568, 9.17196816, 23.86105614, 34.22206890, 13.21552118
22.25870616, 7.44983221, 12.03536456, 10.31382567, 9.79285454, 18.45060975, 29.91947526, 12.48899516
17.70875490, 8.62409416, 12.02705284, 9.53414915, 10.22741414, 15.96715379, 28.03212443, 10.85241909
15.78369412, 8.40684245, 11.18481113, 8.22952003, 8.04207685, 23.96142734, 33.40845701, 10.75755548
13.88704432, 6.83739717, 11.04309739, 7.28868987, 6.12780548, 26.75210272, 30.26796987, 9.29381515
12.17579566, 5.60580057, 13.34822086, 8.32015625, 6.33245608, 18.21400560, 21.95051252, 10.32593821
9.80306075, 7.25086202, 16.32789025, 11.44989083, 6.61437828, 13.66565037, 26.63127860, 9.45383520
10.35736453, 8.92188321, 19.74715169, 13.04990421, 8.58487041, 17.44276354, 26.42394747, 10.29441596
11.62217708, 7.94040301, 18.73632835, 11.40942593, 8.89662857, 20.00624902, 25.61542504, 11.14001795
15.14843226, 9.57340065, 16.58538513, 12.53794241, 8.33816527, 23.39551239, 30.21547617, 11.54014731
15.52336948, 10.09826718, 17.36735443, 12.21474519, 9.44589858, 21.41086173, 26.40123103, 12.91413954
10.86508168, 7.61741426, 16.32253044, 11.27718937, 8.35314312, 19.03089593, 21.84776876, 10.90642013
10.20539073, 8.80198841, 16.54539211, 12.45893254, 5.60133913, 21.73016337, 25.70894786, 8.47791248
11.59849128, 10.03742995, 14.74957627, 10.96243586, 6.68019461, 22.25758298, 29.48516576, 10.03120132
11.83532847, 9.48815050, 17.90391019, 11.06571281, 7.71362431, 21.74971264, 25.81811380, 10.20661550
9.13236005, 8.66602562, 18.10317652, 13.35102992, 10.43551628, 22.71893483, 24.35005133, 10.28348190
10.11681768, 8.37406711, 14.50258598, 12.43684043, 11.17810360, 21.04340752, 28.71193132, 11.01249291
10.93389226, 8.97635784, 18.59233713, 12.01873537, 8.15475322, 15.00499917, 23.29001932, 9.68504001
11.62217708, 9.38083152, 18.24486229, 11.12879149, 7.93882863, 14.25745419, 25.03996805, 10.16980826
12.13053997, 8.48969964, 15.97341541, 11.45207405, 8.53229160, 15.05323885, 32.52575902, 10.33319892
9.75064100, 8.30812855, 17.71722326, 16.45752108, 8.55423872, 16.45600194, 29.31296641, 10.38749248
9.76089135, 7.65996084, 17.20247075, 15.23646941, 7.98592512, 15.63969309, 25.44945972, 10.16734970
10.59008971, 6.99821406, 16.75037313, 10.56527330, 7.44647568, 15.32073758, 23.95621005, 7.93882863
11.57151675, 9.29919351, 17.30534599, 10.35495051, 7.87242021, 17.66918221, 19.36814395, 9.00138878
10.89610022, 8.73641803, 15.37855650, 11.04988688, 7.05513997, 16.04446945, 28.08691866, 9.53152664
8.45872331, 6.98927750, 15.44425460, 12.99326749, 7.03562364, 14.40833092, 32.29434935, 7.87083223
8.89662857, 10.42473021, 19.12720576, 14.57823720, 6.52111954, 13.79311422, 32.45689449, 8.92188321
9.84885780, 11.46080276, 19.85572965, 13.86362146, 6.71006706, 12.56483187, 31.18573392, 8.91767907
9.95991968, 8.61539320, 18.05131574, 13.29097438, 6.81909085, 13.41640786, 25.51764096, 8.05760510
10.31140146, 8.03741252, 17.31040150, 14.93151031, 5.65464411, 11.65225300, 24.38339599, 8.04363102
10.43312034, 9.74166310, 17.96315674, 13.51758114, 5.41525623, 10.73545528, 22.60033186, 7.79422863
10.44389774, 8.76783896, 16.15549442, 11.61895004, 5.39444158, 13.61157596, 30.55486868, 9.35948717
9.36749700, 7.54320887, 12.53794241, 10.69462482, 6.27096484, 16.28419479, 34.26623703, 9.84504952
8.73927915, 8.45576726, 13.64825996, 10.02995513, 5.89703315, 17.35151290, 26.45798556, 9.00832948
10.58064270, 8.59214758, 16.59894575, 10.99886358, 4.55796007, 18.61719635, 26.92814513, 9.68245837
11.31812705, 9.55379506, 17.57057199, 11.69294659, 4.80364445, 17.71228387, 28.99396489, 10.12299363
10.47616342, 9.64105803, 15.75119043, 11.88907061, 5.72494541, 17.21409306, 26.39649598, 8.54985380
9.52890340, 8.39047079, 15.14430586, 10.53802638, 5.60357029, 15.44749171, 24.78507615, 8.20213387
8.21735967, 7.96398142, 13.80579588, 9.86534338, 5.74891294, 12.58471295, 24.22085878, 7.67137537
10.77265056, 8.21583836, 14.48878877, 10.29198717, 5.17204022, 15.03246487, 27.40392308, 8.52789540
10.78888317, 7.80864905, 14.56708619, 12.15216030, 4.68774999, 19.68755952, 27.31254291, 9.36749700
8.03585714, 9.19102823, 16.08881599, 13.97318861, 6.93181073, 19.69835018, 21.55400195, 7.19722169
8.14094589, 8.71492972, 17.49642821, 14.16950952, 8.47053717, 16.06471288, 17.82975042, 6.49422821
8.28854631, 6.68393597, 17.89133869, 13.60790212, 9.59166305, 16.57332194, 24.18832363, 7.46156820
8.01560977, 7.58617163, 17.55277756, 12.92284798, 8.54692927, 15.31257653, 24.39313428, 7.04982269
9.65789832, 7.85334324, 13.65558494, 12.65800142, 7.07636913, 16.45220350, 21.90604939, 5.88005102
10.19068202, 7.61248974, 14.05524813, 14.07924004, 8.46315544, 17.96315674, 23.93950710, 5.75760367
8.32466216, 6.98212002, 13.77316231, 12.94990347, 7.72334125, 18.22292512, 24.42744358, 7.24051103
9.03742220, 8.06535802, 13.84015896, 11.50217371, 5.12347538, 16.39130867, 22.09411686, 8.01872808
10.75406900, 10.26036062, 15.89182180, 14.15185500, 5.72276157, 13.56005162, 19.10824429, 7.84856675
10.14765983, 8.57029754, 14.48102206, 13.09389171, 6.18061486, 13.67845020, 25.04446047, 7.97809501
8.98192630, 6.50768776, 12.50299964, 11.92790845, 7.00178549, 16.68981725, 24.37314095, 8.33816527
9.99499875, 8.52496334, 13.31728200, 11.34680572, 6.91556216, 17.24093965, 23.61302607, 7.88035532
9.66178037, 9.33273808, 14.10319113, 9.33809402, 4.84767986, 12.33490981, 22.93141949, 6.66333250
8.01716908, 9.21140597, 13.89874095, 9.95364255, 5.12103505, 11.36441815, 20.33592880, 6.54025993
8.82043083, 8.83459111, 13.09866405, 9.11866218, 6.83922510, 15.83192976, 24.63990666, 6.92278846
9.58514476, 9.35414347, 13.71951165, 11.24388723, 7.25775447, 23.36075769, 32.00351543, 9.06780017
10.26645021, 11.02837250, 16.82483284, 13.52682520, 7.68439978, 27.09520253, 34.70518693, 9.76985159
9.84885780, 10.92931837, 17.13257132, 11.96766477, 7.87400787, 24.57539420, 31.23659713, 8.07619960
9.22361101, 10.11311030, 19.49487112, 12.68857754, 7.07636913, 20.79002165, 32.24321634, 8.17618493
10.26645021, 10.46183540, 20.38994850, 14.71818603, 7.05513997, 15.23482852, 32.76392834, 9.04018805
10.73196161, 12.03120942, 22.18839787, 15.07315495, 7.47161295, 17.34430742, 27.44130099, 8.63133825
10.40072113, 11.81947545, 21.37638884, 13.07956421, 7.22495675, 20.15192299, 25.98557292, 7.90411285
9.87420883, 9.06917857, 17.22860993, 11.73136821, 6.81175455, 15.33623161, 27.61657111, 7.29725976
10.47019580, 9.39015442, 16.83523092, 12.37335848, 6.96598880, 12.13569116, 23.30396962, 6.45755372
10.20294075, 9.80306075, 16.18950277, 12.64317998, 6.61059755, 13.87443693, 26.11225766, 7.41788380
9.60858991, 8.60087205, 14.90805152, 12.22190656, 6.90470854, 17.58195097, 26.52263185, 8.18993284
9.81707696, 8.54400375, 18.65207763, 14.53960109, 6.18465844, 20.51523824, 20.82966634, 6.99464081
8.97775027, 8.77353976, 20.65066585, 15.40292180, 5.55427763, 19.47113248, 22.44159085, 6.70634028
7.65506368, 7.71362431, 14.88119619, 11.60387866, 6.58407169, 19.22628409, 21.97612341, 7.30581960
8.40089281, 7.73142936, 13.01249400, 10.36701500, 6.84470598, 21.86035224, 29.23482512, 8.33816527
9.54201237, 7.60098678, 12.79355306, 8.74356907, 7.06045324, 20.73885243, 36.29566090, 10.31261364
11.47388339, 9.31128348, 19.15985386, 14.90888997, 10.48808848, 23.25564448, 31.78010384, 10.85702538
12.47397290, 10.61955743, 20.82906623, 16.51892854, 10.72613630, 25.06441701, 39.74072219, 10.34287194
11.20602517, 8.69913789, 15.81455026, 11.43568975, 8.49705831, 27.46952857, 42.52146517, 9.49473538
12.23723825, 9.30725523, 17.10190048, 13.98570699, 9.20190198, 26.06722080, 36.02568528, 8.60813569
11.87855210, 9.76601249, 16.69505915, 14.05080069, 8.99166281, 21.37638884, 32.81272619, 8.19756061
11.02723900, 10.23962890, 14.56966026, 11.70363191, 7.82144488, 19.41455639, 26.91746645, 10.26401481
14.70884088, 10.47138959, 17.48499357, 14.57309164, 7.37902433, 16.41569371, 27.31437351, 11.00227249
15.75595126, 9.21411960, 17.26267650, 15.81059771, 7.00000000, 17.84306588, 29.86009042, 12.06233808
13.09580085, 10.20294075, 17.27498191, 13.39402852, 6.32060124, 17.55135322, 27.24564185, 13.00865097
13.39216189, 12.19118534, 19.39394235, 12.56980509, 7.31436942, 16.49469612, 25.20019841, 10.54158432
13.30789240, 11.75053190, 20.91709827, 13.85369987, 9.10494371, 17.20755648, 27.84286264, 8.32766474
12.14289916, 9.76345226, 21.25793969, 15.13687550, 8.96242155, 16.99779397, 24.84954728, 9.74935895
12.35617255, 9.00138878, 19.22823445, 14.09964539, 7.41114026, 18.29617446, 23.53401793, 11.20714058
14.15362144, 10.24939023, 20.05056109, 15.93031701, 6.42261629, 20.82906623, 24.04111062, 11.33357843
14.71054044, 11.67261753, 21.79506825, 15.75198400, 6.65206735, 16.64782268, 25.36730179, 10.88347371
16.47573974, 10.51308708, 20.75752875, 14.28110640, 6.39726504, 11.32143984, 28.50131576, 10.00499875
15.45396389, 8.89522344, 17.01176064, 13.64093105, 5.70087713, 18.27361486, 28.11360880, 9.69922677
13.72406645, 8.68907360, 16.38139188, 11.11305539, 6.29086640, 18.15282347, 26.91653767, 10.22619186
15.61329562, 8.67179336, 18.41941910, 12.51698846, 7.04450140, 14.78174550, 24.14073321, 10.08216247
13.69306394, 8.76213444, 19.94805755, 12.74460670, 7.04804938, 17.84796907, 22.32599382, 10.28469737
12.77888884, 8.40386816, 17.68473918, 11.68973909, 6.50768776, 15.71066517, 26.50848921, 10.62896985
14.72073368, 8.51028789, 13.80398493, 11.24055159, 5.74891294, 18.36028322, 27.68618789, 11.11080555
17.61817244, 9.26147936, 16.17250754, 12.83841891, 5.60357029, 19.74525259, 31.28777717, 12.23928102
16.81071087, 8.49264388, 16.06704702, 12.12538659, 6.64642761, 15.66604609, 33.62625462, 10.25792377
12.66293805, 8.65303415, 19.44993573, 12.26580613, 7.31949452, 14.76397643, 28.51140123, 8.25530133
12.32680007, 8.11017879, 19.14092474, 11.70149563, 6.66333250, 18.24691755, 26.66411446, 10.22252415
13.13107002, 6.06836057, 11.76329036, 9.48946785, 5.70526073, 17.52712184, 26.16629511, 10.18822850
12.38345671, 6.43234017, 11.43022309, 11.35781669, 5.75108685, 12.03744159, 27.96470990, 8.80198841
12.80917640, 6.47688197, 13.72406645, 11.93733639, 5.99374674, 17.98958032, 30.22705742, 8.86989290
11.66833321, 8.26135582, 18.82551460, 13.69123807, 6.64454664, 18.26814167, 28.77412032, 9.15832954
12.16346990, 8.16088231, 19.25681697, 14.18890412, 7.27839268, 15.75595126, 30.71074730, 9.58384057
13.21552118, 6.76572243, 18.02012764, 14.84587485, 6.84835747, 16.44460398, 31.35442552, 10.77961038
10.47138959, 7.87400787, 15.68438714, 13.54160256, 5.57449549, 12.91413954, 26.85377068, 9.54725091
10.50833003, 8.29306940, 12.50599856, 9.47628619, 5.48634669, 11.69187752, 25.76431641, 8.42318230
11.33137238, 9.15013661, 15.39805182, 9.70824392, 5.85875413, 12.32781408, 32.08854936, 10.05484958
9.71596624, 9.06780017, 15.33134045, 9.59947915, 6.16035713, 14.33963040, 28.71671987, 9.00832948
11.52388823, 9.06504275, 14.03923075, 8.88538125, 6.50000000, 15.74880948, 21.82143442, 9.84631911
11.22274476, 8.64146978, 13.05660752, 8.66169729, 7.71200363, 15.84455743, 30.00208326, 10.21151311
8.08393469, 7.25947657, 12.28108301, 8.47938677, 7.67137537, 13.87263493, 31.25259989, 7.56802484
9.30053762, 8.12557690, 18.37865610, 10.78076992, 6.70074623, 15.20690633, 29.09080611, 8.19756061
10.19558728, 10.07844234, 21.19138976, 12.32172877, 8.28854631, 15.97967459, 26.62611500, 8.33666600
10.20294075, 10.09331462, 16.14156126, 10.76104084, 8.26740588, 14.13152504, 24.90230913, 6.58596994
10.58772875, 8.84024887, 14.39183796, 13.20037878, 7.60591875, 20.60461113, 30.78148794, 7.43303437
10.20416582, 7.27495704, 15.32563212, 13.83022053, 7.56637298, 21.30610241, 34.49275286, 8.02807573
9.94861799, 6.08070720, 13.02209661, 12.45993579, 8.11326075, 16.73917561, 29.94578434, 7.24396300
10.26036062, 7.89303490, 17.65998301, 14.98165545, 8.68907360, 16.10046583, 24.16816087, 8.74499857
11.66619047, 8.80056816, 20.35128989, 14.13329403, 7.26980055, 18.47430648, 34.41075413, 10.82589488
14.22673540, 7.56306816, 17.22860993, 10.46900186, 7.06576252, 19.70406050, 38.04273912, 10.56527330
12.21883792, 8.15935046, 15.78765340, 10.87313202, 7.22495675, 15.92246840, 30.49549147, 9.18830779
7.64689479, 8.35014970, 14.54819576, 12.33896268, 7.28525909, 17.56345638, 29.55334160, 7.75403121
8.95404936, 7.78138805, 15.78844514, 12.65009881, 7.85811682, 17.22643318, 31.82334049, 7.49333037
12.06026534, 7.40101344, 14.46634024, 11.45643924, 6.70634028, 13.74408964, 32.89224833, 9.24256458
12.97593927, 6.18869938, 12.29837388, 12.22906374, 6.21892274, 18.10593825, 32.21800739, 10.09083743
10.43072385, 6.69141241, 12.56980509, 13.02305648, 7.22322643, 15.92011306, 30.85773809, 8.71349528
9.25607908, 6.59355746, 15.21265920, 12.85398771, 8.97635784, 13.71768931, 28.98447860, 7.37733014
9.78902447, 10.61602562, 24.61097316, 18.42552577, 8.94986033, 16.90635975, 27.43492300, 7.49166203
9.10219754, 12.07166103, 25.49166530, 18.56811784, 7.41619849, 15.78527795, 28.57708873, 8.46758525
9.70566845, 9.18014161, 19.79646433, 15.39642816, 6.97853853, 15.24959016, 24.89829311, 9.42867965
9.44325156, 7.99218368, 16.97056275, 15.49677386, 7.28182669, 14.42133836, 21.68121307, 9.48683298
8.71636392, 7.50166648, 14.98332406, 12.61348485, 7.61413160, 15.49516053, 27.18179538, 8.75357070
10.23230179, 6.97495520, 13.86181806, 11.47279391, 7.39594483, 16.73469450, 30.36404123, 8.20822758
10.61367043, 7.79102047, 13.34072712, 12.02601347, 7.25775447, 16.72124397, 28.85697489, 7.59440584
10.26157883, 7.50832871, 14.50000000, 12.46996391, 6.23698645, 15.77894166, 27.74752241, 7.81504958
8.79914769, 6.22494980, 14.78512766, 11.37541208, 5.90762220, 12.68857754, 26.00528792, 8.51762878
8.27042925, 6.76941652, 14.39791652, 11.27718937, 6.10122938, 13.36974196, 26.22689459, 8.78493028
10.47377678, 7.57297828, 13.13202193, 12.31564046, 7.26119825, 16.56200471, 30.20513201, 9.48287931
11.31591799, 7.72172261, 13.44154009, 11.28051417, 8.35314312, 18.61719635, 32.50538417, 9.64753855
10.72963187, 6.67645115, 13.03361040, 10.27740240, 7.50666371, 22.51888097, 27.03053829, 8.94566934
10.18331969, 7.20763484, 12.29735744, 10.95673309, 7.08343137, 19.76423538, 27.04487012, 8.79488488
9.88812419, 9.05538514, 17.55348968, 12.43583532, 7.71200363, 14.11559421, 31.27139268, 8.65303415
10.46064052, 8.36510610, 18.64470434, 11.46080276, 7.21976454, 17.24093965, 29.23910053, 8.92608537
9.48024261, 7.28010989, 14.56365339, 11.40285052, 7.16414684, 15.95540661, 27.26444571, 8.36361166
8.72353140, 7.43639698, 13.61249426, 12.28006515, 7.52163546, 14.60479373, 27.12286858, 7.04982269
9.38482818, 6.40702739, 14.03834036, 11.88907061, 8.47643793, 16.57332194, 26.66739582, 7.41788380
10.77265056, 8.03896760, 18.06308390, 12.66688596, 9.39148551, 19.55824634, 29.24764948, 8.69338829
11.31149857, 9.34344690, 18.31665908, 10.97724920, 7.57627877, 19.35006460, 29.48177403, 8.72209837
11.64152052, 7.68439978, 14.57652222, 9.91589633, 6.02909612, 15.21019395, 31.72341407, 9.06780017
13.02785477, 7.98905501, 14.65179170, 10.15012315, 7.04804938, 20.50182919, 35.02641860, 11.37541208
13.91851285, 9.75704873, 13.79855065, 10.91214919, 7.67463354, 26.57677558, 31.60023734, 10.91214919
11.96244122, 8.31264098, 12.08718329, 11.23832728, 6.75092586, 24.63838469, 27.26903005, 8.78066057
13.11678314, 6.02079729, 11.37101579, 11.71964163, 6.09507998, 21.75258605, 25.05344288, 9.64105803
15.46770830, 6.22494980, 10.32230594, 10.99431671, 7.20763484, 19.78319994, 29.27328133, 9.84377976
14.61078369, 6.92278846, 11.76435294, 9.99874992, 6.52878243, 14.43346805, 32.91086447, 8.32015625
13.03936348, 8.77923687, 14.49741356, 12.72890412, 7.01961537, 15.83429822, 27.40757195, 6.47495174
13.38936145, 8.64146978, 14.09521195, 11.95094139, 7.57297828, 16.36688730, 24.00833189, 8.25681537
13.47497681, 7.90411285, 11.78558441, 11.09504394, 5.89491306, 15.18140310, 24.47192269, 9.72111105
10.61602562, 7.92148976, 11.05667219, 11.25055554, 5.35256948, 15.81692132, 23.67699305, 7.84219357
11.95303309, 7.44143803, 13.01633589, 12.29939023, 6.32850693, 14.13594709, 31.41774976, 7.88986692
13.36319573, 7.00713922, 14.30996157, 13.47126572, 7.37054950, 17.62952070, 30.39695708, 7.90094931
12.62537128, 6.06630036, 13.91132632, 13.49259056, 7.67137537, 18.95586980, 26.45184304, 6.77126281
12.02081528, 6.12372436, 14.52928078, 12.58173279, 7.16589143, 15.63569634, 28.54032235, 11.01022252
13.04607221, 6.81175455, 17.30823503, 10.90871211, 6.54217089, 14.70714112, 29.60194250, 11.38859078
13.01729619, 8.38600024, 16.65082581, 11.64259421, 6.76017751, 16.15781545, 29.19289297, 8.75214259
11.10742995, 11.44552314, 22.72168568, 15.27743434, 6.91194618, 16.63655613, 23.41580663, 8.47496313
9.46044396, 10.73079680, 24.64345755, 16.71152297, 6.02909612, 17.64865434, 22.34502182, 7.28868987
9.72625313, 11.44989083, 26.96293753, 17.17265268, 5.86088730, 17.42985944, 29.05684085, 8.17618493
11.46625484, 13.41733953, 30.61984651, 16.38825799, 6.69141241, 17.94923397, 29.37132956, 8.43356390
13.53329228, 12.01561484, 27.71281292, 14.60051369, 7.03206940, 18.05200820, 25.97691283, 9.62159031
12.47397290, 11.40175425, 29.47710976, 15.49838701, 6.54980916, 16.83374587, 32.05932002, 9.56425637
9.50000000, 10.13039979, 26.78525714, 15.68677787, 5.91607978, 13.79039521, 33.00113634, 8.34715520
9.75448615, 10.04738772, 27.02591349, 16.41264756, 5.98748695, 13.01249400, 24.98599608, 8.05605362
9.46968848, 9.68245837, 24.20433845, 13.64551208, 6.54217089, 15.04493270, 27.69431350, 7.57957782
8.93028555, 9.17605580, 19.85258170, 9.88559558, 7.82144488, 14.68843082, 30.88041450, 8.25075754
9.09945053, 9.48683298, 22.64343172, 12.43382483, 7.94040301, 16.72871782, 31.83080269, 9.80051019
9.96242942, 8.85720046, 22.10429822, 14.80709289, 7.08343137, 16.58237016, 30.99637076, 9.63327566
9.19374788, 9.33005895, 22.29237538, 15.34193599, 6.58407169, 16.76976446, 34.70914865, 9.01665126
7.73466224, 9.65012953, 21.71865558, 13.38469275, 6.03738354, 17.88714622, 34.29285640, 9.63197799
8.89522344, 9.01942348, 21.41378061, 13.33510405, 6.37573525, 15.42157579, 27.05457447, 8.84872872
11.58123482, 8.92748565, 21.35474186, 14.81300105, 7.80544682, 15.16080473, 29.08350048, 9.19646671
11.60172401, 8.22192192, 22.12125675, 14.03477823, 8.64291617, 19.01841213, 28.20416636, 8.52789540
11.31812705, 7.06929982, 18.39429259, 15.14100393, 8.17159715, 20.67063134, 27.04255905, 8.56883889
11.67047557, 8.64869932, 19.18723534, 16.03979426, 6.43039657, 24.74520156, 33.54847239, 9.30725523
10.00124992, 8.69770085, 20.78039942, 14.27322668, 5.71839138, 23.97342278, 34.15991803, 8.22800097
10.71330948, 8.40386816, 15.43453919, 12.35718415, 7.07990113, 20.08668713, 31.36757880, 8.81050509
14.34311682, 8.92888571, 13.75409030, 12.31361036, 7.20243015, 27.72002886, 32.45535395, 10.48451239
16.09114663, 9.07606743, 17.40904937, 12.46294508, 7.15367039, 28.71541398, 29.34919079, 9.91841721
13.95886815, 9.23038461, 20.07672782, 15.51934277, 7.54652238, 21.97782974, 26.76658364, 10.42952540
12.77203977, 10.13903348, 21.61076121, 17.18574991, 6.74907401, 18.39701063, 30.46842628, 10.12546295
12.96726648, 10.93846424, 17.30028901, 14.31083506, 5.27019924, 18.38341644, 31.25859882, 8.60087205
11.32916590, 10.29563014, 15.41752250, 14.89462990, 5.65243310, 20.45727255, 26.05810814, 8.98610038
10.41273259, 9.41275730, 16.56804153, 14.94657151, 6.42845238, 21.46916393, 24.98299422, 7.78941590
9.67341718, 8.41278789, 11.24833321, 12.80722452, 6.53261050, 21.63099628, 23.56162134, 7.73789377
10.37424696, 8.25530133, 12.37234820, 14.09609875, 7.00713922, 19.23018461, 24.90431689, 9.10631649
10.30533842, 10.01374056, 17.89413312, 15.16904743, 7.40439059, 18.31665908, 26.07489214, 9.84631911
10.11681768, 9.77241014, 17.06238553, 13.43223734, 6.75092586, 17.94226853, 20.88899232, 9.23850637
11.86486410, 8.27345152, 14.06947049, 12.39052057, 6.69328021, 17.11139971, 23.69493617, 9.40744386
12.81112798, 8.90365094, 12.95279893, 11.53906409, 6.52303610, 15.14760707, 26.12087288, 10.15381702
12.91801068, 10.70163539, 14.52411787, 10.90527395, 6.90470854, 18.20233502, 30.95076736, 9.50920607
11.85221498, 10.41633333, 18.56609814, 12.50599856, 8.24014563, 19.43965020, 31.93861299, 8.87975225
10.69111781, 8.71923162, 16.04914328, 14.13683133, 7.92464510, 15.21512405, 28.67272223, 8.57467201
13.46476884, 10.09207610, 12.83841891, 15.24549114, 6.92098259, 19.46728024, 25.50000000, 7.89461842
13.48795759, 11.06684237, 18.80558428, 17.42125139, 6.81725751, 20.46460359, 23.61673136, 6.73980712
10.58300524, 9.24256458, 18.13146436, 16.49545392, 6.98569968, 16.71675806, 27.10535003, 7.74596669
9.28439551, 7.49166203, 12.49499900, 12.56483187, 6.58027355, 13.90053956, 25.39734238, 9.26282894
9.13920128, 7.76369757, 15.07398421, 10.63837394, 5.97076210, 13.82117940, 22.86864666, 9.55641146
11.58447237, 8.75785362, 17.87246486, 12.62041996, 6.42066975, 15.10629008, 22.30638922, 11.02837250
10.40552738, 8.29759001, 15.94913791, 13.32009760, 6.23097103, 15.59647396, 34.19429777, 9.96995486
9.25742945, 8.73784871, 12.95183385, 12.98171791, 4.63141447, 13.68758562, 35.04283094, 7.37224525
11.49347641, 11.12205017, 17.47641268, 14.98499249, 4.64219776, 14.65349788, 26.13761657, 7.86765531
10.99317970, 9.44589858, 17.09239597, 13.07382882, 5.12591455, 20.73463286, 25.86600085, 8.57467201
7.52994024, 7.80384521, 14.67140075, 10.32835902, 5.10147038, 19.25811517, 35.91378565, 7.35866836
9.47496702, 9.30188153, 17.19084058, 12.01145287, 5.39675829, 16.29570496, 38.13102411, 7.70551750
9.75576752, 8.32616358, 14.83661012, 12.52697090, 5.56327242, 16.49924241, 30.84679886, 8.26286875
11.22385852, 8.68043778, 12.91510743, 13.76226726, 5.33151011, 19.87523585, 27.90250885, 9.93981891
13.00384559, 9.51840323, 16.56804153, 14.94657151, 7.23878443, 24.48009395, 29.36068800, 11.00454452
9.90454441, 8.93448376, 17.72568757, 12.87342223, 7.71524465, 23.76236520, 29.45759664, 9.22225569
8.80908622, 10.00499875, 15.35985026, 12.72890412, 7.33825592, 18.88120759, 22.95157947, 8.27194052
10.59952829, 9.02911956, 14.05880507, 14.14832146, 7.45654075, 16.17868969, 32.98332912, 8.55862138
12.63526810, 8.20213387, 22.02328313, 17.50785538, 6.81542368, 18.67886506, 37.81170454, 11.41709245
12.79257597, 9.96995486, 30.24111440, 20.46582517, 6.90108687, 24.94193256, 35.10270645, 13.76408370
19.24577876, 15.06651917, 38.14937745, 23.02009991, 10.10816502, 24.70374466, 41.68063099, 15.69952229
24.60233729, 18.07968473, 35.68508092, 24.53161226, 12.09235296, 26.38607587, 46.03096784, 17.81502175
22.72443619, 17.97011408, 33.31891355, 23.02444353, 13.09198228, 35.27605420, 51.24499976, 20.39852936
21.06774786, 21.16719159, 46.88683184, 25.44405628, 12.58967831, 37.72863634, 51.40573898, 19.73892094
27.78353829, 32.02577087, 57.23875435, 34.63415944, 12.04885887, 34.65508621, 43.37741348, 22.22948492
33.10966626, 38.73757865, 70.41910252, 42.93774563, 16.04914328, 31.53490130, 48.08040141, 24.77448284
33.10211474, 46.59452758, 78.82591579, 47.56311596, 20.00437452, 39.41287861, 51.86906593, 25.81956622
30.94955573, 48.52035655, 68.17807565, 49.85754707, 19.23668371, 47.39145493, 50.08592617, 25.26361019
33.53281974, 38.27499184, 57.97995343, 48.17987132, 20.17052305, 43.46780418, 51.56403786, 27.01527346
34.59335196, 45.81320770, 69.85789147, 44.87176172, 21.09502311, 36.60737631, 54.02800200, 40.75168708
34.64714995, 53.37508782, 71.97482199, 49.36977820, 20.96306275, 41.20922227, 54.49495389, 42.30986883
36.42046128, 55.56370218, 69.93157370, 46.15950606, 20.47681616, 44.07550340, 51.85388124, 31.47181279
35.71099271, 52.59253749, 69.97445963, 39.18513749, 18.30300522, 42.61484483, 44.26341605, 30.36898089
38.08280452, 50.16522700, 70.32833711, 45.99456490, 19.00592013, 38.92011048, 42.56729966, 36.60635191
37.03950594, 54.98795323, 72.23797478, 48.10561298, 22.19853599, 36.29600529, 39.31030399, 32.91162409
29.79345566, 50.29786278, 66.20366304, 40.90751765, 20.92964405, 32.88654740, 35.00035714, 21.63619652
25.32192726, 48.07208129, 71.18251190, 33.26973099, 16.17946229, 30.50040983, 39.29535596, 17.19520282
33.74870368, 48.55563819, 72.75455312, 36.47533413, 16.06004359, 31.61368375, 38.90051414, 24.34594422
35.78232804, 42.58696984, 61.07884249, 33.41107601, 15.20115127, 26.01874324, 40.19452699, 25.92633796
24.21982659, 29.21215500, 53.07023648, 25.96584295, 13.87173385, 25.71526784, 40.80533053, 19.98249234
17.25688268, 21.94196892, 52.62485154, 28.32710716, 12.29939023, 29.89356118, 38.45711898, 17.31906464
21.35532720, 43.09756374, 70.56911506, 47.13809500, 17.51856158, 34.03050102, 44.79285657, 18.47836573
21.30375554, 46.73970475, 79.28004162, 52.53046735, 17.97637338, 34.87298381, 43.56747640, 20.45482828
19.45057840, 35.52358372, 66.69857570, 36.96315733, 13.55175265, 34.12110784, 34.03601034, 17.36447523
18.72298053, 32.44726491, 55.28245653, 26.76004484, 12.08304597, 32.03825838, 34.47172755, 15.43048930
18.78962480, 25.40472397, 48.03514338, 22.40256682, 9.42072184, 31.51705887, 33.59464243, 16.68382450
17.83746058, 25.32735675, 52.28790491, 25.02848377, 11.52063366, 31.53093719, 36.03262411, 15.43372930
18.54521502, 27.56446988, 49.68374986, 25.76868254, 13.23536928, 33.43650699, 42.16752305, 16.62453007
17.55562588, 21.89349218, 32.67759171, 19.83242295, 12.01457448, 30.39819074, 39.71429214, 15.71464285
12.19528597, 22.15513484, 39.74984277, 22.05164393, 12.21474519, 20.22745659, 29.34024540, 9.87547467
13.17858111, 20.56757156, 38.40898332, 21.18844024, 11.38310151, 19.19440023, 30.12598546, 14.31170849
18.72164523, 14.50861813, 28.87516234, 15.95383966, 7.40270221, 23.06078923, 32.83214888, 15.60849128
27.54178643, 15.93894601, 32.80624940, 15.29297224, 9.23850637, 30.22623033, 33.96063898, 15.72180015
24.48009395, 15.46043337, 29.66985002, 14.85345078, 10.11434625, 30.88365263, 33.23364259, 16.04602755
14.86186395, 13.70127731, 31.07048439, 15.78369412, 10.23108010, 28.52674184, 30.65778857, 12.91317157
17.36591489, 12.52397700, 32.31949876, 16.09813654, 10.16612020, 27.90430074, 29.12988157, 12.01457448
19.03089593, 11.79724544, 27.48681502, 16.02810032, 8.26135582, 27.10719462, 25.47891285, 11.87749974
18.40991581, 13.58583821, 28.44775914, 15.84297952, 7.59275971, 23.99479110, 28.93311252, 11.46298390
15.10877229, 13.24669770, 28.71454335, 15.91618673, 9.65660396, 19.53138500, 31.93626465, 11.11305539
13.21930407, 10.42712808, 29.59771951, 14.95576812, 10.90527395, 24.21156748, 29.26132259, 11.21383075
16.22112820, 11.10855526, 29.72036339, 14.92732394, 8.55277733, 23.51967262, 26.65473691, 11.16915395
15.73610498, 11.28937554, 24.36903773, 14.18978506, 6.45174395, 21.33951733, 25.19970238, 9.88306633
14.57223387, 10.93274897, 22.25028090, 12.77301844, 5.45435606, 23.62361107, 31.43405796, 11.32033568
13.87623868, 12.08511481, 26.63456401, 16.24653809, 7.80864905, 21.22498528, 32.36240102, 11.61787416
9.89823217, 10.06975670, 22.53552751, 16.22343983, 8.86989290, 19.30997152, 33.01931253, 8.61103943
17.91647287, 8.42021377, 22.45829468, 15.15998021, 9.49605181, 27.03100072, 32.65310092, 12.87050893
19.49294744, 10.08835963, 27.50772619, 16.47953276, 10.59598981, 32.30402452, 23.97133705, 14.68332387
17.18211279, 10.27253620, 24.41106307, 15.78844514, 10.08092258, 24.64142853, 25.40521600, 12.14186971
15.37449186, 8.74642784, 20.04183125, 16.25807492, 8.77211491, 18.53712491, 28.60769127, 11.38529754
14.22497803, 8.05294977, 14.39444337, 14.82143718, 7.44647568, 21.05706532, 31.60261065, 11.25277743
15.67003510, 9.65012953, 17.94993036, 11.18928058, 6.40897808, 23.20937311, 38.90051414, 11.34570403
15.57321418, 9.80178555, 23.28035653, 14.46374779, 7.71038261, 22.54828153, 36.03609302, 10.08092258
18.00069443, 10.58418632, 22.51832587, 16.31870093, 8.73212460, 17.00220574, 31.50753878, 11.11642928
16.94550088, 9.60078122, 16.48332491, 15.52417470, 8.20518129, 15.60208319, 33.10815609, 13.23442481
16.05381575, 7.15017482, 10.81549814, 15.13687550, 7.72010363, 17.42483859, 31.62475296, 13.04607221
14.24692949, 7.36206493, 13.58859816, 16.55143498, 8.45133126, 21.48778723, 30.69690538, 11.15235401
12.23008585, 9.49078500, 16.51287377, 15.55634919, 8.53961357, 21.78474237, 28.40290478, 9.66695402
12.53395389, 10.65950280, 21.36586062, 14.02943335, 7.67137537, 24.31563283, 30.49344192, 10.82474018
16.06704702, 10.63132165, 20.82306414, 13.81394223, 8.97496518, 27.77768889, 36.03713363, 11.50760618
18.81953772, 10.86968261, 18.35074930, 13.95886815, 8.13941030, 24.35980295, 35.09772072, 11.46625484
18.65676821, 9.19646671, 18.21606434, 13.73317152, 6.74536878, 17.36447523, 30.26962174, 10.97269338
17.08654441, 8.48969964, 13.16719408, 10.14396372, 7.61905506, 14.12621676, 29.30145048, 10.62191132
12.79941405, 8.98331787, 11.72177461, 9.68891119, 7.20243015, 15.03828448, 31.39307248, 10.44030651
13.65466953, 9.29112480, 14.38054241, 12.71416533, 6.00624675, 13.15389676, 27.64914104, 9.80306075
13.24481030, 8.58195782, 17.90809873, 13.71130920, 5.69649015, 15.91775738, 23.84848004, 8.63712915
12.19221063, 8.41278789, 19.41648784, 13.13011805, 6.66333250, 18.92749323, 27.19328961, 8.07155499
13.03744607, 10.32472760, 17.20973562, 12.67872233, 6.93721846, 17.81782815, 24.40235644, 8.91767907
12.61150269, 9.01249133, 15.58204094, 11.45316550, 6.46142399, 15.62369995, 22.22329859, 9.48551527
14.14036775, 7.76530746, 19.94116346, 14.40052082, 7.56637298, 13.87623868, 20.73885243, 10.48332008
13.41827113, 7.66159252, 18.08867049, 13.95170241, 7.16240183, 14.75720163, 16.47877423, 9.07469008
12.59265659, 6.55743852, 15.46366709, 13.75318145, 5.32447180, 14.36575790, 22.49444376, 6.55171733
12.20143434, 6.44398945, 15.56679158, 14.61677119, 7.89461842, 13.03936348, 29.75987231, 8.26740588
10.56290680, 5.33151011, 12.85593248, 12.47898233, 8.08548081, 14.31170849, 31.99570284, 8.88819442
12.28922292, 7.18157364, 13.24292264, 11.93838348, 6.24499800, 13.09770972, 26.18587405, 9.86787718
16.18795849, 8.30511890, 12.51099516, 10.58418632, 6.43622560, 15.21758851, 25.49264600, 11.58770901
15.17481466, 8.51028789, 13.06904740, 9.91967741, 5.71839138, 18.03746102, 29.91613277, 10.43431838
12.89088825, 7.86924393, 11.29822995, 10.87313202, 6.76387463, 17.53852901, 28.60419550, 9.11317727
13.28815262, 6.41482658, 10.20416582, 12.91704301, 8.28854631, 16.09813654, 33.15644734, 9.05262393
12.76224902, 5.83095189, 11.01476282, 11.68546105, 7.68114575, 13.93735986, 33.46378640, 10.25670512
12.68167970, 6.04979338, 10.95331000, 8.17618493, 5.56776436, 13.82841278, 26.18587405, 10.33077925
14.65946793, 6.29086640, 11.76010204, 8.59941858, 4.39033028, 13.08243097, 29.54911166, 9.39015442
15.29869275, 6.38944442, 12.87342223, 11.12991464, 5.25119034, 14.16245035, 29.60743150, 10.38749248
15.13274595, 6.19879020, 12.25153052, 11.94361754, 6.84287951, 15.59246613, 26.57348302, 12.06544653
15.15338246, 5.76844866, 11.13665120, 10.97838786, 7.19722169, 16.30414058, 28.15048845, 11.38529754
13.78495557, 7.00713922, 10.67941946, 10.92817460, 5.90973773, 16.03277892, 22.28284093, 10.19190856
12.96341005, 6.89927532, 10.36339713, 12.71219887, 5.54526825, 11.95930600, 22.22161110, 9.83488688
13.46940979, 5.26782688, 10.29077257, 12.35617255, 6.22896460, 13.08529709, 27.24151244, 10.18945533
13.07669683, 5.76844866, 9.01249133, 10.31140146, 5.94138031, 13.07478489, 28.39894364, 10.71914176
14.68843082, 6.10737259, 9.15559938, 12.39052057, 5.19133894, 11.37870819, 27.24380664, 9.91085264
16.52951905, 7.07283536, 10.48570455, 14.48447445, 4.69308001, 13.42572158, 22.78321751, 9.36215787
14.18449858, 8.37257428, 12.77497554, 14.82902559, 4.57165178, 12.63526810, 19.43643486, 8.86143329
12.95376393, 7.09577339, 11.90168055, 11.71964163, 4.53872229, 14.95409643, 26.40596524, 8.42021377
12.47297078, 6.43622560, 9.71081871, 7.55314504, 5.24166004, 14.24166423, 26.64347950, 7.77335192
12.37941840, 6.05392435, 9.33273808, 8.55569985, 5.11615090, 10.48212765, 24.10290439, 8.24317900
12.95858789, 4.88364618, 8.01093003, 10.09702927, 5.44747648, 11.81736011, 28.98404734, 8.78066057
13.49907404, 5.28204506, 10.17472358, 10.27375297, 5.50908341, 10.79930553, 30.42367499, 8.85720046
14.85513379, 5.68330890, 11.04988688, 11.60495584, 5.10636857, 12.09752041, 29.06157257, 8.40238062
13.85369987, 5.21536192, 10.31988372, 12.63922466, 5.72712843, 12.18400591, 27.39981752, 8.38301855
13.53883304, 6.76756973, 14.79442463, 11.13440614, 6.15629759, 11.19709784, 26.42773165, 8.90084266
13.71130920, 6.90470854, 13.42758355, 10.51427601, 6.22494980, 16.45676153, 26.60826939, 10.37304198
12.24642805, 6.22695752, 8.51909620, 13.44247001, 5.42217668, 17.74401307, 27.26215325, 10.22496944
15.79240324, 6.83739717, 10.71214264, 13.74863630, 5.11859356, 13.36880698, 27.06058019, 9.25202680
16.96245855, 5.89491306, 12.98364356, 9.77880361, 5.42908832, 15.30604456, 24.69362266, 10.21640837
14.15980226, 6.10941896, 12.44989960, 9.26012959, 5.51815186, 16.72722332, 29.85841590, 10.01873245
11.89327541, 5.97285526, 9.35547968, 15.07398421, 6.45755372, 15.53705249, 32.86411417, 9.60468636
11.04875559, 4.57984716, 8.88960067, 14.98582664, 5.99791630, 14.79949323, 27.14313910, 9.11180553
11.04649266, 5.33151011, 9.04157066, 9.78519290, 5.01996016, 11.14674840, 25.68024533, 8.11480129
10.02621564, 7.06576252, 12.82575534, 12.08821740, 6.44786786, 10.44988038, 26.14813569, 7.82304289
9.70953140, 7.41451280, 13.80307937, 11.96139624, 9.36749700, 13.01153335, 25.80067829, 7.37054950
10.74592946, 6.39726504, 11.92266749, 9.80561064, 9.51971638, 12.78475655, 24.46681426, 8.88678795
9.68891119, 5.54752197, 10.31624932, 12.34605200, 8.45872331, 12.08718329, 23.44941364, 9.49341877
8.62988992, 5.08920426, 8.85014124, 11.74840415, 8.59505672, 11.64796119, 25.61688896, 7.74273853
10.75174404, 5.21775814, 9.70180396, 10.79467461, 6.15426681, 13.91851285, 26.45845800, 7.96398142
11.53798076, 5.57897840, 9.49210198, 15.74880948, 5.52720544, 15.15750639, 22.11899636, 8.16241386
11.78982612, 5.79439384, 9.76857206, 16.46435544, 6.48652449, 13.29191484, 19.46278500, 7.24741333
13.82027496, 5.62805473, 11.51412176, 12.82672990, 4.96739368, 15.00666519, 22.00454499, 10.65598423
13.03552837, 6.40507611, 11.42147101, 14.43779762, 4.83993802, 15.23728979, 23.43874997, 10.75871740
10.50833003, 7.68277294, 11.58123482, 14.10141837, 4.93457192, 11.77497346, 26.11465106, 9.24256458
11.43241007, 7.20416546, 11.18033989, 9.89065215, 4.30116263, 12.55487953, 26.27689099, 9.76473246
11.65010730, 6.96598880, 9.12688337, 11.03177230, 4.92950302, 15.44506394, 30.00333315, 9.90202000
12.85009728, 7.89778450, 10.36701500, 11.87328935, 5.04727649, 16.72871782, 34.19137318, 11.72603940
14.28810694, 7.07990113, 11.57691669, 11.18033989, 4.73814310, 15.15338246, 30.82288111, 10.55343546
12.04678380, 6.42650761, 10.88002757, 13.16529529, 5.59687413, 11.42365966, 26.99953703, 7.11512474
10.25792377, 6.81358936, 11.33026919, 13.04511403, 6.52878243, 12.01561484, 23.28679884, 6.20685105
12.38850273, 5.86088730, 11.21940284, 11.72923697, 6.03531275, 11.60603291, 19.06698718, 8.84307639
11.05328006, 7.46491795, 15.68518409, 12.99038106, 5.93295879, 13.25330148, 25.14507904, 9.10357073
12.45190748, 9.13372870, 15.51128621, 14.14390328, 5.54977477, 19.80467117, 29.97373851, 9.08432716
12.62834114, 9.05676543, 9.86154146, 13.03361040, 5.83952053, 19.98749609, 27.43720102, 9.09395404
9.64494686, 8.23711114, 12.76420777, 11.54556192, 6.25699608, 18.41466807, 27.55902756, 7.93882863
10.10198000, 6.46722506, 12.97401249, 11.38419958, 5.96447818, 16.55521066, 28.38133189, 9.36749700
10.78772451, 8.21279490, 17.81291666, 12.10578374, 6.79521891, 13.89874095, 30.04995840, 8.95544527
10.34528878, 11.87118360, 27.76913755, 13.22024962, 6.42456224, 16.29493786, 30.71766593, 8.71779789
8.47053717, 12.23723825, 28.84354347, 14.26096070, 6.77864293, 17.15881698, 26.24166534, 8.98053451
10.64072366, 10.54039847, 23.09545410, 14.68843082, 7.02851336, 14.58080931, 22.65005519, 8.41575903
12.04989627, 9.70309229, 22.79418786, 15.99062225, 6.26897121, 13.33135402, 20.11902085, 10.00124992
13.86091628, 8.70631954, 23.13222860, 14.84924240, 5.52268051, 16.50833123, 19.73385416, 10.53684013
13.49722194, 7.08166647, 17.46711195, 11.89117320, 4.99499750, 13.77134707, 20.90334901, 9.06917857
11.38090506, 6.02702248, 10.42353107, 10.20906460, 5.35723809, 8.90224691, 21.54414073, 8.78066057
11.53039462, 6.87568178, 11.44879906, 10.18209212, 5.36656315, 10.30048543, 24.79112745, 9.81580358
9.21818854, 6.87568178, 12.16552506, 11.39736812, 6.08481717, 11.96139624, 26.01009419, 8.92608537
9.18422561, 5.50908341, 10.42473021, 11.50108691, 6.02079729, 10.11063796, 23.19321021, 7.70551750
11.48041811, 5.70306935, 11.68118145, 11.69722189, 5.85234996, 10.48808848, 20.51706607, 9.79540709
12.61942946, 6.61815684, 11.32475165, 10.62191132, 5.51588615, 14.94573518, 21.30199521, 9.54201237
12.39556372, 6.13595958, 8.50294067, 9.55248659, 5.32212364, 15.64608577, 33.58161700, 8.10092587
10.48451239, 5.89915248, 8.48969964, 8.92048205, 4.91680791, 11.59202312, 34.17345461, 8.17159715
9.92471662, 5.69868406, 9.76473246, 9.62548700, 4.00936404, 11.21494539, 32.32955304, 8.28100235
11.01816682, 5.08428953, 11.21940284, 12.59861103, 6.65394620, 15.34030639, 32.84775487, 9.34077085
11.52171862, 5.96447818, 12.79062156, 13.53513945, 6.78785680, 14.65946793, 26.32014438, 8.38600024
12.11816818, 5.88430115, 11.20825589, 10.50714043, 5.06458290, 12.96726648, 24.28837170, 9.19510739
13.54713992, 7.34676800, 11.21940284, 9.10906142, 5.59016994, 12.65207493, 21.93798076, 10.74127553
12.88506888, 7.05691151, 11.45207405, 10.14889157, 4.98246927, 9.18694726, 23.77814122, 9.39148551
13.12821389, 6.53643634, 11.77072640, 11.57151675, 4.56618002, 7.43135250, 30.50327851, 10.35132842
12.69153261, 7.39425453, 12.21883792, 10.40072113, 4.37607130, 8.68331734, 30.80137984, 9.65012953
8.23711114, 5.81162628, 9.81962321, 12.05715555, 5.51135192, 10.22374687, 25.30167979, 6.02079729
9.47496702, 5.75108685, 8.93168517, 13.08816259, 6.29682460, 14.99749979, 24.76994146, 8.00468613
11.16131713, 5.67230112, 7.45821695, 10.87772954, 5.39444158, 18.71296342, 27.96694477, 7.88669766
11.15235401, 4.54147553, 6.69328021, 11.53689733, 5.42908832, 16.22960258, 27.65140141, 6.71192968
12.12538659, 6.17251974, 10.41393297, 12.43080850, 5.58121850, 17.69675111, 27.65637359, 8.22040145
12.47196857, 6.27295784, 11.22385852, 11.41161689, 5.20096145, 21.48546020, 29.31467209, 7.82144488
11.47388339, 4.99499750, 10.79351657, 11.44333867, 5.64358042, 16.83448841, 31.30055910, 8.43800924
10.90871211, 5.09411425, 11.07248843, 13.35196615, 6.68393597, 12.61348485, 31.04633634, 9.25202680
11.45207405, 4.66636904, 8.87834444, 11.21605991, 5.84593876, 13.80851187, 28.20416636, 8.41575903
12.00728945, 5.63249501, 8.60523097, 10.44868413, 4.55247186, 14.33875866, 26.18682875, 9.18830779
11.26609959, 5.58793343, 10.11805317, 10.95787388, 4.56891672, 16.50454483, 25.89642833, 8.66314031
9.96619285, 4.50000000, 11.09617051, 11.79618582, 4.58802790, 18.06931100, 26.32774202, 7.90727513
10.84204778, 5.06705042, 11.22497216, 11.34460224, 5.29386437, 15.04991694, 23.00108693, 8.19603563
12.94893818, 11.12317401, 16.17096163, 15.07066687, 7.25603197, 29.18646947, 29.98624685, 8.02028678
12.71908016, 12.65898890, 21.83517804, 17.32555915, 7.70389512, 35.97533878, 29.92824753, 9.44060379
11.91427715, 9.18422561, 20.21818488, 14.89295135, 6.98391008, 28.88814636, 27.30338807, 9.97747463
12.70432997, 7.25603197, 16.58086246, 12.80624847, 6.16238590, 21.04994062, 33.17265440, 8.26891770
12.94990347, 7.55976190, 16.01171446, 10.27740240, 5.31507291, 22.02612086, 33.24755630, 8.18077013
11.80783638, 7.48832425, 16.00781059, 10.97611042, 5.47265932, 25.56902423, 29.38069094, 9.23173873
11.61141680, 6.15629759, 14.76397643, 11.02497166, 5.63693179, 19.75790981, 25.61298499, 7.91517530
10.97838786, 5.39675829, 11.79830496, 11.84588536, 5.64358042, 16.84488053, 22.93087438, 8.33216658
9.94359090, 6.19677335, 11.48368408, 13.97408315, 5.11615090, 16.28419479, 22.46997997, 8.60232527
11.36441815, 7.51664819, 13.15959726, 15.45558152, 7.43975806, 16.47498103, 24.86966023, 7.45821695
11.68973909, 8.37108117, 13.94453298, 14.63301063, 8.13019065, 22.06807649, 27.45177590, 9.15696456
13.25518766, 7.82304289, 11.34129622, 11.98227858, 6.25899353, 21.27263500, 23.50053191, 10.01374056
12.01977537, 7.07460246, 11.23053872, 10.21640837, 5.41756403, 16.44992401, 19.60739656, 8.50441062
8.78350727, 6.33048181, 12.03017041, 10.62661752, 5.82022336, 14.52669956, 20.44565969, 7.78138805
9.46836839, 5.57000898, 12.87730562, 11.55530181, 5.78359750, 13.01057262, 17.62384748, 8.55862138
10.73429085, 6.38357267, 15.87293294, 10.37304198, 5.32212364, 10.97952640, 17.00441119, 7.89936706
11.20714058, 5.98539890, 13.47126572, 9.88938825, 4.53045252, 12.93155056, 21.34478859, 6.08892437
10.21151311, 4.94974747, 9.99499875, 11.18145787, 4.38463225, 14.26183719, 26.43624406, 6.38161422
8.71636392, 4.81144469, 11.22385852, 11.42803570, 5.89067059, 12.22497444, 25.38355767, 8.39493895
10.51427601, 6.70634028, 10.62191132, 12.23621674, 6.24099351, 11.88170863, 27.40894015, 8.44985207
11.49238879, 7.30239687, 10.82820391, 12.38345671, 5.28441104, 11.52171862, 30.30841467, 8.56883889
9.48419738, 6.95521387, 13.66930869, 11.65547082, 5.34088008, 14.69013274, 28.02543488, 8.14401621
10.72846681, 7.43975806, 16.27958845, 13.91581834, 6.60302961, 19.33067510, 24.74974747, 6.92278846
12.84620567, 8.32466216, 16.61400012, 16.20725146, 6.89202438, 17.66210633, 26.01874324, 7.65343060
13.22119510, 8.83883476, 15.70111461, 15.67322558, 6.83191042, 16.03121954, 26.79365597, 7.60263112
13.44154009, 8.78208404, 15.03579063, 15.04908635, 6.06423944, 17.25326056, 26.12422248, 7.45989276
14.24956140, 6.88113363, 13.41827113, 15.06568950, 6.02079729, 19.41069293, 27.62924176, 9.13783344
13.06713435, 5.84380013, 12.30751803, 12.99134327, 6.57647322, 19.96684752, 25.95091521, 8.88115983
10.67005155, 6.68767523, 11.37541208, 12.04159458, 6.35413251, 18.80890746, 28.32754843, 7.02851336
11.83215957, 6.82825014, 10.86393115, 14.83239697, 5.29386437, 17.12089367, 28.40070422, 7.12214855
13.37721944, 6.79521891, 12.34503949, 13.92838828, 4.33877863, 13.49351696, 23.54729284, 6.49807664
12.71318214, 6.46335826, 12.79453008, 11.40613870, 5.62138773, 12.60158720, 24.52855479, 6.74351540
11.02837250, 6.79705819, 11.28826825, 11.88276062, 6.41872261, 11.54556192, 23.25241923, 7.13442359
10.08092258, 5.92874354, 13.80036231, 13.42292815, 5.74891294, 11.63077813, 18.23252588, 6.91194618
10.06106356, 5.09901951, 14.52239650, 14.18802312, 5.26070338, 11.63507628, 21.02439060, 6.91013748
11.50108691, 6.31664468, 12.74852933, 11.68332145, 5.76411311, 12.35414910, 25.62615851, 8.12557690
12.53395389, 6.53069675, 12.76126953, 9.83234458, 5.70526073, 15.22415843, 23.40352538, 8.46020094
12.17374223, 5.48862460, 11.28826825, 9.85646996, 5.80732296, 15.35008143, 20.42486230, 7.31436942
12.97690256, 6.79521891, 11.28273017, 10.89839438, 6.15629759, 12.54093298, 22.09411686, 8.59505672
11.86591758, 6.77864293, 14.07124728, 12.44789139, 5.53850160, 14.31607488, 23.56851714, 8.96939240
10.38508546, 6.58976479, 16.66583331, 12.06855418, 5.83309523, 15.21019395, 26.90213746, 8.88397434
11.07925990, 8.08702665, 20.67667768, 11.80466010, 6.58976479, 14.99416553, 23.42648074, 8.82751381
9.85646996, 7.85652595, 25.27004155, 12.60753743, 5.80086200, 15.57562198, 24.65714906, 7.49499833
7.88194139, 6.91736944, 23.18835915, 14.14125171, 5.41063767, 14.33963040, 34.46338637, 7.73466224
6.63890051, 7.61248974, 20.05804078, 13.23725802, 5.77494589, 14.88959368, 32.81615456, 6.88658115
7.70389512, 7.89303490, 18.37389452, 10.20906460, 5.32447180, 18.23938047, 29.59476305, 8.10401135
7.31095069, 7.37394060, 17.34935157, 12.86468033, 5.13078941, 16.20802270, 32.34540153, 8.29759001
7.70389512, 7.40945342, 17.16537212, 12.62537128, 4.97995984, 10.84435337, 31.38152323, 6.97495520
12.77106104, 6.81725751, 15.00999667, 9.21140597, 6.19475585, 14.36314729, 29.57194617, 10.38508546
12.79941405, 7.92306759, 17.90670266, 9.93856126, 7.00357052, 17.62810256, 26.06482304, 10.26401481
11.19263150, 7.74273853, 17.68544599, 10.79467461, 6.38553052, 16.13536489, 28.09804264, 8.64436232
12.03017041, 7.74435278, 19.79962121, 12.60257910, 5.41756403, 11.72603940, 31.20977411, 8.85578907
9.59817691, 7.54817859, 19.32679487, 12.02705284, 5.25832673, 10.10445446, 26.38702333, 8.40238062
9.57470626, 6.19677335, 15.90754538, 11.83532847, 5.68770604, 13.16244658, 25.27004155, 8.15935046
11.51195031, 7.66322386, 19.37330638, 16.41797795, 6.52111954, 19.45571895, 25.52106973, 8.78635305
11.57691669, 7.43807771, 19.91356322, 16.88564479, 6.95880737, 26.87377904, 22.76565396, 9.41541290
12.41370211, 5.88005102, 17.78271633, 13.64276365, 6.64078309, 23.20344802, 27.00046296, 8.75785362
11.47606204, 7.20590036, 19.79520144, 11.70149563, 5.89067059, 14.89546911, 29.31680406, 7.89778450
10.21885512, 7.20069441, 18.91295852, 11.04649266, 5.34088008, 15.90990258, 23.06620905, 7.37224525
11.75478626, 5.66789202, 13.09961832, 11.23387734, 5.67230112, 14.77159436, 21.37054047, 7.50333259
14.16421547, 6.36396103, 16.46359620, 11.47061463, 6.31664468, 22.73433527, 29.40748204, 10.14026627
16.41340915, 9.50657667, 27.57716447, 14.33788687, 6.79521891, 24.86262255, 29.95746985, 11.60064653
16.23268308, 9.85520167, 27.82579738, 15.37205256, 6.78969808, 21.04459551, 27.40529146, 10.21763182
15.69155824, 7.00713922, 17.53211339, 12.18297993, 6.05805249, 19.72561786, 26.15960627, 9.97747463
13.60422728, 7.12741187, 14.51550895, 11.36991645, 4.91934955, 16.70927886, 20.38259061, 9.50000000
15.19786169, 6.96419414, 13.71039751, 11.52822623, 5.38052042, 13.91671657, 21.10568644, 9.59035974
17.59332260, 6.64642761, 13.98391934, 10.29198717, 6.04565960, 13.51573157, 27.05134008, 11.16915395
15.04576352, 6.33245608, 14.23376268, 10.12546295, 5.48178803, 13.13773192, 27.99062343, 9.88812419
14.65349788, 5.35490429, 11.84799561, 10.74709263, 5.09656747, 13.03456942, 27.26903005, 8.98749131
15.35008143, 6.44786786, 11.79724544, 9.94107640, 4.99749937, 17.96315674, 25.46468142, 9.22903028
14.73685855, 7.19374728, 13.93735986, 10.00374930, 4.41021541, 17.39827578, 30.93218389, 7.99061950
14.14213562, 6.74166152, 12.02289483, 11.28494572, 4.93457192, 13.72042273, 32.65884260, 7.50333259
13.50462884, 6.89565080, 12.04989627, 13.86271979, 5.18169856, 14.20651259, 25.58173176, 8.45872331
12.30447073, 7.00000000, 13.32385079, 14.14390328, 5.42448154, 14.45337331, 25.77207791, 9.51708989
12.20040983, 6.13595958, 9.99624930, 13.65100729, 5.30330086, 13.28438933, 24.55605832, 10.31261364
11.95512442, 6.63890051, 12.81307926, 13.82841278, 6.17454452, 16.62678562, 21.11693633, 9.83869910
11.71857500, 8.06070717, 13.45269490, 11.53798076, 6.89021045, 16.53405576, 19.16702898, 9.06917857
11.86591758, 7.16937933, 11.25055554, 11.22719912, 6.81358936, 15.76784703, 26.70346419, 8.44097151
11.48586087, 6.31070519, 12.02705284, 12.60059522, 6.55362495, 16.06082190, 27.94369339, 8.33666600
13.42758355, 6.50960828, 10.85587399, 11.74201857, 5.56776436, 13.44154009, 24.79465668, 8.29005428
12.96148140, 6.20685105, 9.12688337, 9.63197799, 4.91934955, 13.06617771, 22.80131575, 9.17605580
11.39188308, 5.85234996, 10.08464179, 12.90833064, 6.87386354, 13.19374852, 22.61526033, 10.21273715
10.74941859, 6.02287307, 10.17472358, 14.41006593, 6.81175455, 13.53144486, 24.20020661, 8.20213387
11.54447920, 5.83737955, 11.05780268, 12.62834114, 5.74673821, 11.10180166, 20.30886506, 7.41788380
12.82867881, 4.95479566, 10.90871211, 13.06426423, 6.12780548, 12.27599283, 17.32050808, 7.53160010
11.36661779, 4.76969601, 8.38450953, 12.55587512, 4.69574275, 13.26555691, 21.07071427, 8.12249962
10.50595069, 4.27492690, 10.42233179, 12.94314490, 5.39907399, 11.87960437, 24.03903076, 7.31095069
10.57118726, 5.21296461, 12.16244219, 14.09698549, 5.82237065, 12.44086010, 25.00549940, 5.81592641
10.61838029, 5.91396652, 13.23442481, 14.22146265, 4.62331050, 14.37271721, 36.89003931, 9.29784921
10.40672859, 10.36701500, 26.04227333, 17.23223723, 6.50768776, 15.32644773, 36.13965966, 10.56882207
11.95303309, 11.38529754, 26.31016914, 16.94697613, 6.64266513, 14.71308941, 26.27023030, 9.38882314
12.02809212, 10.50595069, 26.10028735, 17.05579081, 5.62138773, 15.82798155, 25.79680213, 8.63133825
9.21954446, 9.63976141, 26.67536317, 16.85600783, 6.32060124, 16.92852622, 27.49136228, 8.84024887
9.24526906, 9.83996951, 22.59092738, 13.89514304, 5.66127194, 14.00357097, 28.58714746, 8.58487041
12.67675037, 11.33468129, 25.65394706, 14.18273598, 6.20282194, 17.59758506, 27.56855092, 8.14094589
13.21646700, 10.74825567, 22.80734531, 14.21794641, 7.17286554, 18.54656302, 31.21978539, 9.79413090
11.57907596, 11.09053651, 25.15601320, 14.13064047, 7.15891053, 15.08973161, 30.60678029, 11.38090506
11.90483095, 13.04990421, 28.35753868, 17.24528921, 6.77126281, 14.22234158, 24.58200561, 10.97952640
13.54437152, 11.82687617, 24.06605493, 15.48144050, 7.26808090, 12.70629765, 21.98635941, 9.29112480
15.65487145, 8.43800924, 18.50337807, 12.29735744, 7.79422863, 13.33510405, 24.98049239, 11.23721496
14.35357098, 10.57591604, 24.26211038, 16.70553800, 7.77335192, 13.52682520, 28.56308807, 12.51998403
10.13039979, 11.63722476, 26.96015579, 16.76305461, 7.24913788, 18.18240908, 30.52744667, 11.17474832
8.18687975, 10.36098451, 28.28957405, 14.56279506, 6.87022561, 19.01841213, 28.84007628, 9.43133077
8.52642950, 9.03188795, 30.18567541, 14.83323970, 7.85970737, 17.59332260, 32.32259272, 8.37257428
9.10357073, 10.22130129, 26.96386471, 15.16245363, 7.83581521, 15.47659523, 31.63265718, 9.48551527
10.18086440, 11.59202312, 29.42575403, 15.17646204, 6.78417276, 12.73872050, 23.28250416, 8.82609767
10.73661958, 13.17952958, 28.28515512, 13.92300255, 6.15629759, 16.05070092, 26.20114501, 7.19548470
10.71214264, 12.44387399, 23.82173377, 13.42292815, 6.19879020, 16.85526624, 26.18014515, 8.62554346
13.49814802, 12.03536456, 28.37031900, 15.49112649, 6.88658115, 16.71451465, 29.40068026, 10.26279689
13.55451954, 12.63526810, 28.64917102, 13.84647970, 6.62759383, 15.69474434, 28.49166545, 10.31018914
11.70790331, 10.39110196, 24.38544648, 9.89696923, 5.65464411, 13.71222083, 22.16528818, 8.86425406
14.40833092, 9.76985159, 20.68332662, 9.35948717, 5.76411311, 13.03073290, 24.86764967, 8.69482605
13.02209661, 10.44988038, 19.49422992, 11.80466010, 5.50908341, 18.13766799, 35.36276290, 9.25202680
14.46288353, 10.31867240, 22.12295188, 14.01160234, 5.97913037, 21.20141505, 37.50366649, 10.51665346
16.12606586, 7.87400787, 17.32916617, 11.96662024, 5.54075807, 17.11359109, 27.57671119, 10.76916896
12.65701387, 7.62889245, 14.11470864, 10.51070882, 5.71401785, 14.29073126, 26.67020810, 10.85126721
11.85221498, 9.25067565, 20.15688468, 12.86370864, 6.30079360, 21.23381737, 33.45594118, 10.38267788
10.57000473, 8.95684096, 19.10039267, 15.95697340, 6.07659444, 21.92487172, 31.67491121, 8.61829449
10.64307286, 8.70631954, 18.42145488, 15.51128621, 5.65022123, 15.24959016, 23.09166516, 8.51762878
10.91214919, 7.92148976, 19.83242295, 12.74558747, 5.17445649, 13.18332280, 24.50612168, 8.27496224
8.79914769, 6.49037749, 14.70034013, 11.40065788, 5.63027530, 16.86860990, 27.89489201, 8.67179336
10.21885512, 5.65464411, 9.53939201, 11.10742995, 5.55202666, 19.71927991, 24.60843351, 9.17060521
11.85854123, 6.14410286, 12.04989627, 12.23212982, 6.38944442, 18.24828759, 24.51683095, 9.08432716
11.00568035, 6.89565080, 12.05508192, 11.44879906, 6.19677335, 17.23368794, 30.09734208, 9.59296617
9.35948717, 7.59934208, 17.59616435, 12.02913131, 5.30565736, 15.52981004, 30.86745859, 9.05124301
12.57974563, 8.13172798, 18.52498313, 13.49536958, 6.06630036, 16.17559891, 26.07393334, 10.68058987
13.35196615, 7.43975806, 12.25765067, 13.43316791, 6.20483682, 18.06239187, 24.06917115, 11.13103769
9.75320460, 5.73149195, 11.15795680, 13.47497681, 5.42217668, 15.15833104, 24.27601697, 8.20822758
9.64235448, 6.98391008, 14.17391971, 12.54491929, 4.82182538, 12.72693993, 27.95219133, 7.77174369
11.75584961, 7.81824789, 15.07730082, 9.70180396, 4.21307489, 12.98268077, 29.17318975, 8.08393469
14.08634090, 7.45318724, 13.04223907, 10.48570455, 5.23688839, 13.85460212, 25.46566316, 8.80198841
12.57875193, 6.99821406, 13.17478653, 12.63724654, 5.89067059, 14.04012108, 25.00549940, 9.34745955
9.33273808, 5.86515132, 12.26784415, 12.61546670, 6.02494813, 12.66096363, 24.44688119, 8.80908622
10.31624932, 6.01248701, 12.58868540, 11.40065788, 7.39763476, 12.58371964, 26.54901128, 7.58946638
11.15011211, 6.45561771, 14.30821442, 11.83744060, 6.47302093, 16.44080290, 31.72617216, 7.12741187
11.39188308, 8.19298480, 12.89476638, 15.36717280, 6.15629759, 20.30640293, 34.34348555, 8.67755726
10.71330948, 9.35414347, 15.05988048, 17.02424741, 8.13941030, 18.94201679, 32.68524132, 8.74785688
10.25182911, 9.45912258, 17.94296520, 17.29233934, 7.21976454, 18.06308390, 30.68061277, 8.52789540
11.47497277, 9.63197799, 17.03305610, 16.32559340, 6.68019461, 16.82408987, 28.21967399, 10.76336379
11.76647781, 7.50333259, 15.62449999, 12.60555433, 6.36985086, 17.19084058, 30.71888670, 12.22395190
11.35891720, 6.09918027, 12.91607526, 11.72817121, 5.21536192, 20.32916624, 30.93582066, 10.21273715
13.15389676, 9.85266461, 18.11008007, 15.99765608, 8.21583836, 31.06887510, 38.08674310, 12.73872050
12.85204264, 11.03630373, 22.69250978, 17.95619670, 8.32165849, 35.48732168, 40.48981353, 13.63726512
11.31812705, 10.27010224, 18.10938983, 14.68162116, 7.18331400, 35.41362732, 28.65135250, 9.06504275
11.05667219, 8.18687975, 11.45753027, 14.23990871, 7.95770067, 33.62179353, 28.14737998, 9.88053642
9.90202000, 8.02340327, 12.00624837, 15.24877044, 7.28697468, 25.59199093, 31.16769161, 10.31140146
11.68760027, 12.01457448, 18.84210710, 14.02230366, 7.68277294, 24.63381822, 28.38045102, 9.30725523
12.75049019, 11.73456433, 21.42311835, 14.41613679, 7.50499833, 25.51225196, 26.35431653, 10.07348003
12.18605761, 7.98122798, 16.09813654, 12.59464172, 7.18853253, 28.84527691, 33.83193757, 10.84781084
10.21518478, 8.26740588, 16.72049640, 14.00178560, 8.57029754, 32.86563555, 32.15237161, 9.16242326
8.50881895, 11.34239834, 18.29959016, 16.14930339, 7.89936706, 30.46555432, 26.22832438, 7.19548470
10.41513322, 13.91402170, 16.09736003, 15.23236685, 6.62759383, 24.51020196, 33.76980900, 8.15475322
10.84204778, 12.96437426, 18.54386691, 14.83155420, 7.03384674, 24.56928977, 33.60096725, 9.48683298
11.63292740, 11.26055061, 16.73021219, 14.61249465, 7.55645419, 25.78759392, 25.13563208, 10.39350759
13.56650287, 10.76916896, 17.33637794, 15.20608431, 7.47161295, 20.71533249, 22.50999778, 11.16243701
13.21552118, 8.16241386, 17.55918563, 14.02765126, 6.92278846, 16.82557577, 23.76236520, 10.11805317
10.51189802, 7.47495819, 12.96051696, 11.80466010, 6.46529195, 15.88159312, 23.46966127, 9.02080928
9.60989074, 7.22668665, 14.50603323, 12.40463623, 5.94348383, 15.86741945, 26.24547580, 9.98874366
11.00795167, 8.22344210, 14.56966026, 11.60818677, 5.17928567, 17.16027389, 26.48820492, 10.18700152
10.01748471, 8.60813569, 10.62191132, 9.36349294, 4.73814310, 17.00661636, 28.86260556, 8.94007830
9.11454881, 8.23103882, 9.84377976, 9.38349615, 6.23698645, 18.18447140, 31.03586635, 7.86288751
9.75448615, 7.84538081, 11.63077813, 13.78767566, 6.28887907, 18.55666996, 27.95040250, 9.84885780
11.43896848, 6.73980712, 13.36413110, 13.42013413, 5.08428953, 19.28924571, 27.96828561, 11.63185282
12.38143772, 8.13787442, 12.39052057, 10.37304198, 5.12347538, 19.04140226, 26.55983810, 10.98180313
10.76104084, 9.88938825, 11.02043556, 11.55313810, 5.03984127, 15.87608264, 21.92544184, 9.72496787
10.22619186, 9.84504952, 11.24611044, 11.08377192, 4.50277692, 14.26271363, 26.83654225, 10.29441596
11.27497228, 8.79488488, 10.31624932, 10.62779375, 5.72057689, 15.26433752, 25.57391249, 9.42470159
12.25051019, 9.49210198, 10.98521734, 10.58654807, 5.83523778, 17.60113633, 17.98610575, 8.22040145
14.12975584, 9.39547764, 11.40942593, 12.54392283, 4.76707457, 17.10043859, 21.61596632, 9.50526170
14.01962910, 7.48164420, 11.10968046, 13.19469590, 5.35957088, 16.79359997, 26.65755053, 8.72066511
11.22719912, 6.34034699, 9.73909647, 12.57477634, 5.75325995, 20.76475379, 36.58619958, 7.52163546
14.10673598, 5.85662019, 10.52971984, 11.50434700, 5.12835256, 19.86517053, 33.13759195, 8.66169729
15.38911953, 7.25603197, 11.40723455, 11.02497166, 6.90651866, 14.97915218, 20.52924743, 9.66436754
16.58086246, 8.71206061, 10.92359831, 12.18913451, 7.35187051, 13.63818170, 23.56321285, 10.01498877
21.31314149, 7.95298686, 10.97838786, 11.78664498, 5.08674749, 13.39216189, 23.07487811, 9.02773504
19.68438467, 7.81344994, 11.54880946, 10.38388174, 3.83405790, 14.39531174, 24.38083264, 7.68927825
13.10248068, 8.21431677, 11.77603499, 10.02247474, 3.90192260, 17.14278274, 29.47710976, 7.78620575
9.83996951, 7.79903840, 10.06727371, 11.72070817, 5.94138031, 16.65607997, 25.61786486, 8.14555093
8.94986033, 7.42798761, 11.55530181, 11.25499889, 7.46491795, 17.54066703, 27.74932432, 8.53375650
10.60895848, 7.15891053, 12.15730233, 9.02773504, 6.63513376, 17.84446693, 31.30055910, 8.99444273
13.46940979, 7.24741333, 10.02247474, 9.79157801, 6.03531275, 15.75039682, 27.50590846, 8.38600024
11.31923142, 7.31778655, 9.11454881, 9.79285454, 6.04359165, 15.23893041, 27.21396700, 7.44479684
10.34287194, 6.37965516, 8.58778202, 9.09395404, 5.08183038, 12.70137788, 25.97835638, 7.73627817
12.28210080, 6.41287767, 13.35664629, 10.53684013, 5.83523778, 11.75159564, 21.34361731, 8.01560977
13.13868334, 7.25775447, 15.79636034, 10.93503544, 5.79439384, 15.40779024, 18.00555470, 8.16700680
12.35414910, 6.64454664, 14.03032430, 10.42592922, 4.80884602, 15.99296720, 17.76372709, 8.06845710
14.40572803, 5.49772680, 10.75174404, 10.24329049, 5.16236380, 12.93541650, 18.70294095, 9.49736806
13.17004176, 6.60492241, 9.48024261, 10.48928024, 5.83737955, 13.69854007, 19.87712253, 9.39813811
7.07460246, 7.15192282, 12.33186928, 9.52627944, 4.74078053, 15.02497920, 22.05674500, 6.56315473
8.88397434, 6.67645115, 13.17383771, 11.46080276, 4.57984716, 13.43781976, 26.28259881, 7.63544367
9.56817642, 6.65770231, 11.91952180, 11.98645068, 5.40138871, 12.17682225, 26.26071210, 9.79413090
10.55225094, 6.57837366, 14.01606221, 11.08264409, 5.04479930, 11.54014731, 21.63330765, 8.40832920
10.18822850, 8.03585714, 18.61988185, 12.39758041, 5.74020906, 13.57663434, 26.01393857, 7.70389512
9.31128348, 9.90075755, 18.84874001, 13.68849882, 6.32060124, 16.86268069, 29.75483154, 8.48528137
11.26166062, 9.63457316, 13.11583013, 11.58231410, 6.05598877, 14.53788155, 23.23574832, 8.42021377
10.52259474, 6.90832831, 7.87718224, 7.50666371, 5.85448546, 12.97979199, 19.41777536, 9.02635031
10.05236291, 6.39921870, 13.20889852, 10.58300524, 5.87579782, 15.42400726, 19.40747279, 9.52627944
10.00000000, 6.25299928, 14.42567156, 11.79936439, 5.76411311, 15.16492664, 22.93577991, 9.32067594
8.07465170, 5.88854821, 12.68069399, 9.26552751, 4.73286383, 14.37097770, 24.37724349, 8.08084154
7.28868987, 6.75092586, 12.64120247, 8.42169817, 4.31566913, 12.02601347, 28.71671987, 7.37902433
7.51664819, 7.15367039, 11.74095396, 9.62418828, 6.44786786, 11.94257091, 29.23396997, 7.20936890
8.06690771, 7.23878443, 12.28311850, 10.15750954, 6.33837519, 13.69580228, 19.83557410, 6.86476511
6.39531078, 6.70447612, 13.67662239, 11.63722476, 4.97995984, 11.96244122, 18.81688072, 5.65243310
5.92663480, 8.74213933, 14.02052068, 12.65701387, 6.11350963, 13.09198228, 23.36396798, 6.85565460
7.13617545, 8.44689292, 12.86953768, 11.84588536, 6.09302880, 13.35009363, 24.54332903, 7.49333037
7.68602628, 5.64136508, 12.17476899, 10.96471614, 5.03736042, 13.30695307, 25.50833197, 6.97674709
8.16394512, 5.99166087, 13.61892066, 13.94005022, 5.51588615, 14.72752525, 31.04593371, 8.14094589
8.47643793, 7.38579718, 15.08310313, 15.38505769, 5.95189046, 14.81975034, 27.80242795, 7.85970737
9.94987437, 7.25603197, 13.65558494, 12.48799423, 5.13078941, 12.90929897, 21.45809870, 7.47830195
12.48799423, 6.51152824, 11.22719912, 12.19118534, 4.95479566, 10.61484809, 21.12995504, 9.55117794
11.25388822, 6.57076860, 15.35659467, 12.46695632, 5.43139025, 10.14642794, 19.54993606, 9.97997996
7.31778655, 7.14842640, 16.80624884, 11.04988688, 5.97076210, 9.83107319, 22.36738697, 8.67899764
9.15286840, 6.98569968, 13.22024962, 13.00000000, 6.55171733, 10.99886358, 22.72003521, 7.81664890
10.21028893, 7.28354309, 11.80677771, 14.44472222, 5.43829017, 10.70397123, 24.85709154, 7.64198927
8.97217922, 8.04518490, 13.35196615, 13.50277749, 4.69574275, 12.30954914, 25.00499950, 6.93902010
13.31822060, 7.67951821, 13.97229401, 11.02723900, 5.25119034, 16.54841382, 26.72358509, 8.08857219
14.10407742, 7.67463354, 12.94121324, 12.40564388, 6.77495387, 17.23731418, 31.60537929, 9.76729236
9.38749168, 7.15716424, 11.97706141, 14.16509795, 8.19451036, 18.39836949, 34.36495308, 8.93028555
9.58644877, 7.29383301, 10.98635517, 13.97050464, 7.71362431, 18.80292530, 38.20209418, 10.75523129
9.14877041, 6.67832314, 11.41818725, 15.27006876, 6.54599114, 18.66011790, 35.91726604, 9.63587048
7.55976190, 5.35023364, 13.17478653, 13.20132569, 6.34034699, 16.62302620, 31.17290490, 6.92098259
12.66984609, 7.69740216, 12.29532431, 10.52971984, 6.03738354, 12.22497444, 29.41725684, 11.03290533
13.28815262, 8.24317900, 9.43663075, 10.83512806, 4.97744915, 17.06092026, 28.12872198, 11.06119343
9.66695402, 6.05185922, 11.32695899, 13.24386650, 6.08070720, 18.84277050, 29.90735695, 9.43133077
11.28383800, 6.65770231, 13.63909821, 14.09255122, 7.24913788, 15.17646204, 35.33553452, 10.69929904
13.34353776, 7.27495704, 12.86370864, 13.55359731, 6.36396103, 11.18592866, 33.91091270, 9.88306633
11.57583690, 6.26498204, 10.55698821, 14.68502639, 5.64579490, 12.04989627, 29.97040207, 8.27042925
10.30169889, 6.17454452, 9.19238816, 13.00480680, 5.87579782, 13.67296603, 30.28365896, 8.88115983
10.07099796, 5.26307895, 7.97496081, 11.74414748, 6.29880941, 12.06544653, 30.46104069, 9.89949494
9.52890340, 6.32455532, 7.75241898, 12.20450736, 7.39425453, 17.19302184, 31.33328901, 9.14193634
10.16857906, 6.66520817, 10.44988038, 9.85646996, 6.78969808, 16.73469450, 28.72759997, 7.08519583
9.37283308, 6.60302961, 10.06230590, 8.59505672, 6.35806574, 11.68439130, 27.36512379, 6.63136487
9.42337519, 6.90832831, 8.46906134, 8.57612966, 6.11964051, 13.06330739, 28.65484252, 7.98749022
10.47377678, 6.74536878, 10.30655131, 11.68973909, 4.84252001, 13.38002242, 26.44664440, 8.52789540
10.43192216, 6.54790043, 9.53546014, 14.14036775, 6.57076860, 14.47756886, 22.86810005, 8.67467579
10.05857843, 5.55652769, 9.06504275, 12.80331988, 7.23532999, 15.16657509, 28.79322837, 9.76345226
9.33005895, 6.78601503, 10.50951949, 10.33440855, 7.07106781, 17.08434956, 27.79838125, 9.20597632
9.78902447, 7.18853253, 10.11928851, 10.97952640, 7.29383301, 19.89220953, 25.46713569, 9.35547968
10.52853266, 6.22494980, 9.08157475, 12.66096363, 6.45755372, 18.72832080, 25.71429563, 10.13780055
10.39591266, 5.84166072, 8.92608537, 11.51846344, 6.00000000, 16.46283694, 26.04275331, 8.97496518
11.93943047, 5.83523778, 10.12916581, 11.26720906, 5.41063767, 18.73499400, 36.92763193, 10.49642796
11.94361754, 6.57076860, 11.59956896, 11.92476415, 5.42217668, 23.83747050, 35.72849003, 10.78192933
9.31665176, 7.20243015, 11.98749348, 11.46625484, 5.94768863, 23.15761214, 28.14071783, 8.60377824
9.26147936, 7.47830195, 10.80740487, 12.27191917, 5.00499750, 19.07681839, 27.51045256, 7.90569415
11.55638352, 8.98053451, 11.55313810, 11.45753027, 4.85025773, 18.82020191, 24.79667316, 9.20597632
10.94988584, 9.31933474, 13.25707358, 10.91673028, 6.10327781, 14.61249465, 23.64741001, 10.17595204
10.06106356, 7.94984277, 11.01930125, 11.18592866, 6.32257859, 11.43787568, 23.63524910, 9.31530998
10.22252415, 6.37377439, 7.21976454, 9.56817642, 5.42448154, 13.15104559, 26.03123124, 8.67179336
9.92723526, 5.87792480, 7.43303437, 9.36749700, 5.04975247, 13.37161172, 26.29068276, 7.94197708
10.06727371, 7.44479684, 7.81184997, 9.87294282, 5.66347950, 13.85460212, 27.61294986, 9.03050386
9.01803748, 7.73950903, 10.47974236, 10.41393297, 6.14206806, 15.16327801, 27.59891302, 9.41275730
8.33516647, 7.53989390, 11.13440614, 12.26478699, 7.09048658, 16.60120478, 30.84679886, 8.21583836
9.56686992, 6.78232998, 9.84250984, 13.01729619, 6.73424086, 14.56708619, 33.20128010, 9.99124617
9.97997996, 5.03736042, 8.85296560, 11.99687459, 4.95227221, 11.53147866, 30.65044861, 9.86914383
10.10692832, 5.41987085, 9.03880523, 11.45753027, 5.19133894, 15.52659010, 32.81958257, 7.39932429
10.72030783, 7.17809167, 10.30533842, 11.79936439, 5.45435606, 17.16464389, 30.38544059, 7.36376263
10.72846681, 7.78138805, 9.38882314, 11.21048616, 4.98246927, 15.34926708, 22.75412051, 7.67463354
10.32593821, 6.96060342, 8.66890997, 11.77178831, 5.14538628, 14.85429231, 28.06287583, 8.00780869
9.33139861, 6.71751442, 11.07700320, 13.37908816, 5.88430115, 12.06648250, 35.82910828, 9.15832954
8.53229160, 7.11688134, 13.41174858, 12.36931688, 6.11555394, 11.83427226, 31.75806984, 9.42602780
8.30361367, 7.21456859, 11.75584961, 9.98999499, 4.98748434, 13.91132632, 25.16743928, 8.15322022
7.61084752, 6.58217289, 8.73784871, 12.80917640, 5.63027530, 13.57479282, 23.27606066, 6.06836057
8.64436232, 5.73585216, 9.88938825, 13.72315561, 7.33484833, 16.12916613, 24.87317833, 6.14613700
9.49605181, 5.29858472, 11.16691542, 11.17586686, 7.73627817, 16.86045670, 33.68308181, 8.32466216
10.04241007, 8.23559348, 11.29601700, 11.71110584, 7.54320887, 20.81045410, 32.15081647, 8.11326075
9.00555384, 8.10401135, 10.70280337, 10.24573082, 5.92874354, 18.69893045, 21.12995504, 6.48459713
7.50333259, 5.63693179, 9.84504952, 9.05538514, 4.97744915, 13.70310184, 18.74499933, 7.55810823
7.64035339, 5.65243310, 9.39281640, 12.40262069, 6.06630036, 16.00937226, 26.69082239, 7.96084166
7.65669642, 6.74351540, 9.42337519, 13.83112432, 6.95521387, 13.03073290, 31.02055770, 6.46335826
8.38898087, 8.57612966, 11.87013058, 13.15769737, 6.74351540, 13.24481030, 28.21435805, 6.59734795
8.82468130, 7.93725393, 12.51598977, 12.01041215, 5.80732296, 12.92478240, 24.67387282, 7.82304289
8.52789540, 6.26897121, 11.54231346, 10.55698821, 4.64488966, 10.13039979, 20.91829343, 8.37257428
9.45383520, 5.86301970, 10.52021863, 10.35857133, 4.39317653, 10.43551628, 19.73955420, 9.26282894
10.13656747, 5.79870675, 10.72846681, 11.69829047, 4.65295605, 10.35374328, 20.47864742, 10.32835902
8.50588032, 5.99166087, 10.14642794, 12.99903843, 4.56891672, 12.79648389, 27.70559510, 10.01623682
8.46020094, 7.00178549, 10.59245014, 10.91787525, 5.63693179, 13.68849882, 33.34403995, 8.28100235
7.84697394, 6.28490254, 13.81756129, 9.00000000, 5.13078941, 10.72380529, 32.08465365, 5.73585216
7.30239687, 5.69429539, 13.21930407, 9.50394655, 5.41756403, 11.12205017, 32.52230004, 5.78575838
9.10768906, 6.08276253, 10.53328059, 13.10438858, 6.86658576, 19.20026041, 36.67867228, 8.80340843
9.44854486, 5.52946652, 9.17605580, 13.37908816, 6.19273768, 20.36725313, 33.96947159, 9.05262393
9.17877988, 5.50908341, 8.48822714, 12.02393446, 5.09411425, 13.26084462, 29.61291948, 7.00357052
8.62409416, 8.02651855, 12.69842510, 12.30548658, 4.88364618, 11.59633563, 29.19374933, 6.50960828
8.02496106, 8.36510610, 13.64642810, 12.28210080, 5.07444578, 11.77285012, 28.52805637, 8.59214758
9.46968848, 6.24699928, 9.86534338, 13.28438933, 4.74868403, 11.34680572, 26.17680271, 9.03327183
9.09532847, 5.50454358, 10.00749719, 13.67662239, 4.40738017, 11.56719499, 23.79968487, 7.04095164
7.80704810, 5.70526073, 10.54158432, 12.65306287, 4.46934000, 11.82581921, 29.12473176, 6.77310859
8.55423872, 6.07453702, 10.19436119, 10.83282050, 4.83218377, 12.40765893, 27.48863401, 6.79521891
8.82468130, 7.68765244, 13.91312330, 11.28494572, 5.45435606, 11.85116028, 22.33830790, 6.36985086
11.19821414, 8.04984472, 14.28285686, 11.64366781, 5.92030405, 12.56284204, 22.73818374, 8.98610038
10.48212765, 8.04207685, 11.04196540, 12.39959677, 5.77927331, 14.75042372, 29.07619301, 8.71492972
8.00000000, 7.82464057, 10.44389774, 11.69615321, 5.85021367, 16.30337388, 30.36815767, 7.54486580
8.84448981, 6.11350963, 10.26157883, 8.66314031, 5.05717312, 15.11704336, 29.43424876, 8.57467201
7.75725467, 5.89067059, 9.46704811, 8.27647268, 7.02317592, 16.04213203, 30.00208326, 7.28010989
8.25681537, 7.98435971, 10.11558204, 9.12688337, 9.99874992, 15.36798621, 25.73907535, 7.10281634
9.33809402, 9.04157066, 11.16915395, 8.66602562, 11.76541542, 12.31564046, 28.38353396, 7.03206940
8.07774721, 7.60756203, 10.12422837, 9.57209486, 10.10321731, 13.60790212, 30.68427936, 5.72712843
7.26464039, 7.15192282, 12.17990148, 12.99422949, 6.38161422, 11.89642804, 25.44995088, 6.63701740
8.30210817, 6.83373983, 12.40463623, 11.69829047, 5.56102509, 10.58418632, 25.10776772, 8.09938269
9.56556323, 7.69415362, 11.41490254, 11.18481113, 5.67450438, 12.17579566, 26.71703576, 8.12249962
10.01623682, 8.00000000, 12.02601347, 14.90134222, 6.39335593, 14.35357098, 22.53663684, 7.82144488
9.15832954, 6.78785680, 19.56527536, 12.62537128, 5.17928567, 14.96746472, 24.51988989, 7.26636085
8.32766474, 6.39140047, 23.17218160, 10.09331462, 5.92030405, 17.71651772, 34.06354356, 7.72657751
7.75725467, 7.59769702, 17.17774723, 12.33085561, 6.90651866, 17.78623063, 31.69345358, 7.87876894
8.61684397, 8.47348807, 13.97587207, 11.82370500, 6.11350963, 16.45144371, 18.77232005, 6.10737259
10.68877916, 8.94846356, 16.69655653, 11.04083330, 6.12576526, 15.90833115, 19.94993734, 6.26897121
9.96995486, 8.69051207, 16.18023486, 11.24833321, 6.36985086, 14.11027994, 25.51225196, 6.59924238
7.74758027, 7.48999332, 12.18297993, 9.24526906, 5.68330890, 13.65833079, 24.71740278, 6.16035713
8.91487521, 8.94287426, 10.34528878, 11.41380743, 5.47265932, 12.25663086, 26.14431104, 6.48266920
9.77113095, 9.63327566, 11.47279391, 12.76910334, 5.83309523, 11.63185282, 27.72273435, 7.62889245
9.54725091, 7.21456859, 9.69535971, 10.26645021, 5.21536192, 10.80740487, 25.75266976, 8.28703807
10.21640837, 6.47108955, 6.74166152, 8.81759604, 4.05277683, 9.49868412, 26.01153590, 8.19145897
10.96129554, 6.79153885, 8.94427191, 9.49473538, 5.54526825, 9.63587048, 25.27004155, 7.56802484
11.42365966, 8.09166238, 10.81780939, 10.09579120, 6.54790043, 12.11404144, 27.98794383, 7.74273853
10.09950494, 8.83459111, 9.84377976, 9.43927963, 6.08070720, 17.90530648, 28.41082540, 8.45281018
8.66602562, 6.52303610, 7.60263112, 11.51195031, 5.39675829, 19.21848069, 24.65866987, 8.71206061
9.26012959, 5.88854821, 7.38748942, 11.42365966, 4.73022198, 15.38911953, 26.66598957, 8.96381615
9.34612219, 7.23014523, 9.63587048, 10.19436119, 5.12347538, 12.32882801, 26.12517943, 8.15475322
10.22130129, 8.55131569, 12.19528597, 11.42694185, 5.66347950, 14.22146265, 23.35861725, 7.25258575
9.55510335, 8.30511890, 10.81203034, 9.86914383, 5.18893053, 14.44212588, 29.55883963, 7.29211903
8.48822714, 7.48999332, 8.06535802, 7.03917609, 4.91426495, 10.80509139, 31.27618903, 9.42602780
10.59952829, 7.13967786, 8.36510610, 8.92748565, 6.22695752, 11.48694912, 24.25489641, 10.14149890
12.20757961, 6.99464081, 11.67154660, 10.56409012, 5.22494019, 9.38482818, 24.01353785, 8.45133126
11.20379400, 6.83739717, 13.27685957, 10.34287194, 4.55796007, 10.46900186, 26.44097199, 7.12214855
10.52971984, 6.76017751, 12.35111331, 11.46298390, 6.50768776, 18.07899333, 23.25564448, 7.88194139
10.89954127, 6.98391008, 11.73243368, 10.57473404, 6.49037749, 18.00416618, 25.65638322, 8.25832913
12.46695632, 7.17809167, 10.08216247, 12.75539102, 6.26099034, 12.72792206, 26.50424494, 8.76641318
11.42475383, 6.77679865, 9.73139250, 13.92659327, 5.96447818, 12.54491929, 33.26484631, 9.14877041
9.75704873, 6.36003145, 12.21372179, 10.33803656, 5.22494019, 13.63176438, 33.37439138, 7.88352713
11.93209956, 7.24913788, 11.85854123, 9.62938212, 5.40601517, 12.71613149, 26.57536453, 8.85296560
12.23928102, 7.19722169, 10.07223908, 9.43530604, 5.06705042, 11.73030264, 26.15100380, 8.38898087
10.31503757, 6.01248701, 10.93846424, 11.31591799, 4.67439836, 11.67047557, 30.25185945, 8.39047079
11.34129622, 5.83952053, 10.84089480, 11.84905059, 4.69574275, 10.59008971, 34.60166181, 11.21048616
10.76568623, 6.92820323, 9.36349294, 8.84590301, 4.65026881, 15.46447542, 29.77960712, 10.02122747
7.96711993, 7.18679344, 11.02156976, 8.01249025, 4.79061583, 15.17975626, 26.58053799, 8.42466617
8.56592085, 7.53989390, 14.04991103, 10.64659570, 5.49772680, 10.87083253, 27.93921975, 7.86129760
9.04709898, 7.21803297, 12.81015222, 11.65975986, 5.14052526, 11.86802427, 26.72124623, 5.38516481
9.99374805, 6.25699608, 10.62308806, 10.18700152, 5.38748550, 12.86662349, 26.91653767, 5.84807661
9.21547611, 5.79007772, 11.99270612, 13.00000000, 6.03738354, 15.30767781, 28.45478870, 7.99374756
9.41806774, 6.75462804, 12.90833064, 14.66117321, 6.58217289, 15.91854265, 33.81234981, 9.53808157
14.69013274, 8.62119481, 12.75441100, 14.49396426, 8.10246876, 26.23642506, 39.28549351, 12.00520720
14.83913744, 8.07465170, 12.42779144, 12.61051149, 6.99106573, 32.23701289, 35.28597455, 11.68118145
10.65481112, 8.31113711, 15.09304476, 9.80433578, 5.65022123, 27.35187379, 28.96808589, 9.28843367
9.48551527, 8.76213444, 16.93959858, 12.55786606, 6.73424086, 20.82246383, 25.58906016, 7.77656737
8.36958780, 7.31436942, 15.06900793, 14.13771552, 7.00892288, 21.24852936, 24.84300706, 6.91194618
9.87927123, 7.40439059, 13.30037593, 15.26597524, 6.43816744, 21.44294756, 26.83095228, 7.63053078
10.53328059, 8.96242155, 14.42653805, 15.99453032, 6.71006706, 20.39730374, 29.92657682, 6.69141241
9.82216880, 8.77353976, 16.30797351, 14.72328088, 6.82092369, 29.56729612, 29.41300733, 8.54254061
9.79795897, 7.69090372, 17.47140521, 13.46662541, 7.28525909, 30.25764366, 31.88808555, 9.32201695
11.86697097, 11.44333867, 23.87624342, 14.66117321, 8.68907360, 27.94727178, 31.13880216, 9.84885780
11.81312829, 15.80031645, 33.00151512, 21.32428193, 9.41541290, 30.90671448, 27.10304411, 9.64494686
9.74422906, 13.02977360, 28.00401757, 19.63733689, 8.89100669, 34.78541361, 28.73064566, 8.40386816
10.75639345, 9.27631392, 19.40038659, 15.93737745, 9.28304907, 35.09237809, 31.84454427, 9.56817642
10.48451239, 11.60064653, 24.56725463, 19.11020670, 9.44589858, 35.90647574, 35.84027065, 10.32472760
7.98279400, 9.72239682, 23.97498697, 18.29412474, 8.17159715, 36.59747259, 39.47625869, 10.24939023
9.80178555, 7.20416546, 20.09353130, 16.87972156, 8.33216658, 32.17452408, 41.29648895, 11.30597187
12.36830627, 6.51728471, 13.25330148, 12.99807678, 7.92148976, 33.21784159, 39.90801924, 13.15864735
12.31056457, 6.55743852, 9.29112480, 11.46625484, 7.15541753, 33.07000151, 37.99276247, 12.15318888
12.80722452, 9.67600124, 11.59525765, 13.02209661, 7.18505393, 32.30711996, 33.82676455, 10.40913061
11.61034022, 8.96242155, 9.59817691, 11.19933034, 8.95684096, 34.99107029, 36.64491779, 10.21640837
11.07474605, 5.40370243, 7.09401156, 11.42365966, 10.32593821, 38.01282678, 38.87769283, 10.44748774
14.19683063, 14.77751671, 16.93147956, 15.44101681, 11.11980216, 40.57585489, 40.64849321, 9.67600124
16.37452289, 17.60255663, 25.55190795, 18.23595350, 10.70280337, 38.42427618, 46.00597787, 13.52682520
14.22761400, 12.63229987, 24.15315714, 19.39265325, 9.20190198, 32.09322358, 42.67932755, 13.88344338
10.23352334, 9.12003289, 18.42959576, 18.53038046, 8.12557690, 25.81520870, 34.57636476, 9.05400464
9.16105889, 6.37181293, 13.23159099, 14.54132044, 6.15223537, 27.27911289, 34.24543765, 8.36809417
7.72010363, 4.60163015, 6.67457864, 10.28469737, 5.09411425, 31.36757880, 36.06417890, 8.14248119
8.57467201, 5.01996016, 5.37587202, 10.29198717, 6.30277717, 28.12338884, 33.26559785, 8.20060973
8.40238062, 4.70106371, 5.03736042, 11.03403825, 6.59545298, 26.64770159, 34.94209496, 7.40776620
7.50999334, 5.24404424, 8.60523097, 14.01071019, 6.54025993, 26.32394347, 37.63143633, 7.73627817
8.53668554, 5.51135192, 9.05262393, 13.89964028, 7.74112395, 22.20360331, 36.75289104, 8.68907360
9.22767576, 4.36749356, 6.27295784, 10.29563014, 6.77126281, 18.34529913, 29.99624977, 9.33273808
9.64883413, 3.87620949, 5.45435606, 9.45251289, 5.21536192, 17.82834821, 22.20472923, 9.33273808
9.14193634, 3.39116499, 4.44128360, 9.72239682, 5.95189046, 17.22498186, 26.41495788, 8.85578907
8.71923162, 3.65718471, 4.41304883, 10.51070882, 6.73238442, 16.87527778, 33.30127625, 9.53283798
8.79346348, 3.99687378, 5.82880777, 10.26279689, 7.16937933, 20.13330574, 31.06163228, 8.53668554
9.51052049, 3.55668385, 6.81725751, 8.69913789, 6.49037749, 22.10316719, 23.81018690, 8.23711114
10.57709790, 4.05585996, 9.46440701, 9.68762097, 6.74907401, 21.38398934, 27.22177437, 10.76916896
11.67047557, 5.30330086, 10.38267788, 10.57473404, 7.44479684, 21.36000936, 31.03586635, 10.76452507
11.21605991, 4.74868403, 8.96521054, 11.10630452, 7.40776620, 25.25123759, 33.80125737, 9.60598772
9.10631649, 3.18198052, 6.46335826, 11.29822995, 7.19027120, 25.85923433, 30.25805678, 9.08295106
10.04116527, 3.72827038, 3.38008876, 10.25914226, 6.95161852, 26.75724201, 27.72273435, 9.98999499
11.60926354, 4.10182886, 3.63318042, 9.69793793, 6.65018797, 27.45860521, 28.95470601, 11.16019713
10.07099796, 3.50000000, 4.04969135, 10.60070752, 5.66789202, 25.17737079, 26.33533748, 9.86661036
11.34239834, 3.55316760, 3.89230009, 11.50760618, 7.09929574, 29.76659201, 26.26689932, 9.85393322
11.14113998, 3.39116499, 4.14728827, 12.22804154, 8.57175595, 32.33187282, 29.01680548, 9.52234215
7.63708059, 4.34453680, 8.59069264, 14.01962910, 8.59505672, 31.50317444, 30.87393723, 10.38147388
11.18704608, 5.31977443, 8.89943818, 13.08147545, 7.62069551, 31.42610380, 29.93785229, 12.62339099
12.20348311, 4.68774999, 4.91934955, 11.11530476, 7.27151979, 30.41915515, 33.79903845, 11.95721539
10.24329049, 3.95916658, 3.59861084, 12.10784869, 7.29554659, 30.48278203, 33.21332564, 9.89065215
8.94846356, 3.38008876, 3.19765539, 12.23519514, 5.81162628, 28.94736603, 28.25553043, 8.30361367
6.34231819, 3.13049517, 3.15436206, 9.88433103, 5.92452530, 22.25533644, 29.52202568, 7.32973397
6.77310859, 3.81116780, 3.68442669, 7.66974576, 5.94138031, 16.82483284, 34.18150084, 5.33853913
8.13633824, 4.04660351, 4.18031099, 10.51070882, 5.18411034, 19.11086079, 32.22964474, 6.41872261
9.24526906, 3.45325933, 3.89230009, 12.38244725, 6.65394620, 21.26969675, 27.11825953, 9.35681570
9.75064100, 3.74499666, 3.42782730, 10.28955781, 7.97182539, 19.57357913, 24.78457181, 10.04863175
9.25337776, 3.81116780, 3.36526373, 10.02870879, 7.57132749, 15.70748229, 21.31548733, 9.20869155
8.30963296, 2.89395923, 3.27490458, 11.62325256, 6.09097693, 17.38461964, 21.23087375, 8.36361166
7.38241153, 2.90258505, 2.98328678, 11.68332145, 6.63136487, 21.93456177, 29.07748270, 8.24621125
7.02673466, 3.02076149, 3.15436206, 12.70236199, 7.69415362, 20.91470774, 32.23546184, 6.96239901
8.04984472, 2.94957624, 3.73162163, 14.38141161, 7.68277294, 17.44061352, 28.31298289, 8.55716074
10.47377678, 3.90512484, 4.20416460, 15.25614630, 7.97339326, 18.01041365, 32.82453351, 9.86534338
9.77368917, 3.90512484, 4.63141447, 14.15362144, 7.55314504, 24.06501610, 31.57491093, 9.00832948
7.82943165, 2.89827535, 4.19523539, 12.19221063, 6.56505902, 22.09977375, 36.08358352, 8.25681537
9.01110426, 2.99583044, 3.11849323, 10.32956921, 5.88430115, 14.20915198, 35.44432254, 9.64494686
10.85241909, 3.24807635, 2.71569512, 8.09629545, 5.98748695, 18.73432678, 24.88272493, 12.23212982
9.77752525, 3.03315018, 3.51781182, 10.07968253, 6.08892437, 21.32076453, 26.30446730, 10.49285471
10.98294132, 3.50713558, 3.69459064, 12.21781486, 6.19071886, 17.41335694, 25.54505823, 10.41993282
10.98521734, 3.44238290, 2.83284309, 13.58583821, 5.69868406, 17.65998301, 24.45301617, 10.94303431
8.32916562, 3.39484904, 3.42782730, 14.65008532, 8.17771362, 20.80504746, 28.27277843, 9.08845421
8.95823643, 3.35410197, 3.50356961, 13.16624472, 8.93588272, 19.57996425, 30.68631617, 8.65881054
9.45251289, 3.65718471, 4.14125585, 11.18704608, 6.36788819, 22.44771703, 25.16147849, 8.23255732
9.48287931, 4.09572948, 4.65295605, 14.07391204, 7.31949452, 22.02612086, 25.76528672, 7.91675439
9.18014161, 4.93963561, 13.24197870, 15.48951258, 7.37224525, 17.26774450, 27.63014658, 7.71200363
9.42470159, 5.31507291, 14.58509513, 13.92120684, 6.50000000, 18.21606434, 26.96061943, 7.65832880
8.13172798, 4.25440948, 9.28708781, 14.33875866, 6.81175455, 22.22329859, 28.10515967, 8.96381615
9.20597632, 3.82753184, 8.99861100, 15.64688467, 5.96238207, 23.14357362, 26.05235114, 10.64424727
10.24817057, 4.31277173, 8.53522115, 13.50277749, 5.52268051, 20.49512137, 29.30742227, 10.33561803
9.27900857, 4.28952212, 9.07606743, 10.21396103, 6.32850693, 21.57486964, 32.50499962, 9.53808157
9.44722181, 4.23083916, 10.93732143, 11.10742995, 6.72309453, 23.98436991, 30.52130404, 8.59069264
10.80856142, 5.27494076, 11.13665120, 11.22385852, 6.56124988, 23.65058139, 30.75751941, 8.93308457
11.13889582, 5.20816666, 10.74011173, 10.69929904, 6.14817046, 22.72168568, 31.48531404, 9.60208311
10.14889157, 4.21010689, 9.94233373, 11.37870819, 6.55934448, 21.72556098, 30.05702913, 8.91487521
9.93101203, 4.63680925, 9.22903028, 11.27608088, 7.03384674, 23.32541532, 29.21557804, 8.00624756
13.24009063, 8.90365094, 26.92953769, 20.86264605, 10.01998004, 29.86971711, 37.76009799, 13.11011060
14.81215717, 12.59067115, 33.70534082, 23.15599274, 11.22942563, 38.26715302, 42.16366920, 15.49758046
13.95528574, 12.81015222, 31.27658869, 19.04599695, 9.92471662, 35.42950748, 39.42873318, 13.66199107
14.16245035, 10.53565375, 27.73355369, 16.20493752, 8.86566410, 26.20019084, 40.66202159, 13.37721944
11.38200334, 7.21630099, 20.27683407, 12.07269647, 7.10105626, 27.41988330, 39.35638449, 11.92581234
8.28100235, 5.53172667, 17.13403047, 16.51968523, 7.73950903, 25.78468538, 31.39585960, 9.37016542
9.91715685, 7.44815413, 20.05928713, 17.32988748, 8.04518490, 20.67425936, 25.00099998, 8.04052237
11.33247546, 8.30361367, 23.05048806, 17.00588134, 8.73069299, 18.34189194, 27.23279273, 9.05538514
13.85730854, 7.00178549, 20.19962871, 17.42842506, 8.09938269, 18.67484940, 27.79298473, 10.68058987
13.49444330, 5.73149195, 18.61786776, 14.22761400, 7.48832425, 22.10147054, 24.67741883, 10.63484838
11.10180166, 6.51344763, 17.07629936, 13.01345458, 7.44479684, 21.54878187, 28.90328701, 9.91085264
12.69251748, 6.33640276, 12.95665852, 10.86047881, 5.45893763, 19.03220954, 28.79756934, 10.49642796
12.07787233, 4.72757866, 11.96244122, 12.68660711, 7.40776620, 20.15130269, 24.60182920, 10.19190856
11.25610945, 4.51940262, 10.24451073, 14.78174550, 9.31933474, 23.85319685, 21.49360370, 10.19313494
10.81896483, 5.13322511, 13.15294644, 13.13582887, 9.04433524, 24.16402284, 22.72223581, 10.51189802
9.70051545, 6.34822810, 15.55474204, 13.53513945, 7.69415362, 19.79520144, 24.42181402, 8.68331734
11.56503351, 6.67832314, 14.14832146, 11.80254210, 6.71751442, 17.38605763, 21.99545408, 9.23579991
11.49456393, 5.91185250, 13.47312139, 10.28591270, 7.41282672, 19.80025252, 25.31649660, 9.27227049