36.49931506, 7.87242021, 8.01249025, 23.72656739, 62.20831938, 64.02011403, 18.38613608, 30.18401895
47.40253158, 12.57577035, 6.68019461, 14.19595013, 47.50394720, 53.31697666, 19.13765921, 46.95423304
38.92589113, 17.08508121, 7.09401156, 9.13236005, 34.91489653, 30.51393124, 12.16244219, 47.40859627
31.14201342, 15.87450787, 5.78359750, 8.54692927, 32.67300109, 35.69418720, 10.75523129, 37.74188655
22.15851981, 10.16612020, 4.09572948, 6.28689112, 28.49254288, 34.56551750, 8.42021377, 25.77498788
17.30245647, 8.46906134, 3.61593695, 6.10327781, 30.31542512, 30.82855819, 7.30581960, 17.98193538
21.53427501, 8.25378701, 3.25192251, 6.45755372, 29.61756236, 29.82113345, 7.62233560, 17.07263893
22.35844360, 7.46491795, 4.33301281, 6.21892274, 26.83933680, 29.76911151, 6.55934448, 19.51025371
20.78881911, 6.72309453, 4.47493017, 5.32447180, 22.29237538, 26.81510768, 6.75647837, 22.39642829
24.64599359, 7.22668665, 3.33916157, 5.09165985, 19.03023909, 21.18490028, 11.10855526, 34.72067108
29.73087621, 9.85646996, 3.22877686, 5.82237065, 20.60521779, 19.74082065, 12.33490981, 44.67941360
26.62282855, 8.57321410, 3.61939221, 8.14555093, 26.94345932, 19.59719368, 10.16366076, 43.38029507
30.92895084, 6.74166152, 5.39212389, 15.69713350, 51.51164917, 18.64001073, 10.03120132, 45.21725334
35.99756936, 7.59605161, 5.33385414, 15.48628425, 50.72795088, 24.18005376, 10.91902010, 43.38144765
29.77121093, 6.92278846, 3.61593695, 7.40439059, 27.18961199, 26.17823523, 14.79104459, 29.92532372
27.64914104, 7.23360215, 3.56721180, 5.23450093, 23.40779785, 26.18014515, 17.26774450, 30.11768583
27.07535780, 7.42462120, 3.70472671, 4.79583152, 23.43661665, 27.29056614, 18.14869141, 28.95729614
19.37782238, 6.36788819, 4.54697702, 4.83218377, 22.98967159, 28.71236667, 20.18291357, 16.38444384
16.60421633, 6.31268564, 6.46722506, 6.24499800, 20.29039181, 32.83214888, 18.64470434, 14.64581852
20.54507240, 17.57270611, 7.68765244, 7.89303490, 20.33961652, 30.89498341, 18.43502102, 15.02747484
18.04369696, 19.84124492, 6.02287307, 6.54217089, 20.96127382, 29.06114244, 20.08295297, 12.20553153
16.47422229, 13.98213145, 7.81984655, 5.30094331, 18.92551188, 34.83819743, 19.77182339, 12.63229987
17.79606698, 10.80046295, 9.16242326, 6.00416522, 19.12132318, 39.30012723, 23.08679276, 15.12696268
14.15450458, 9.63587048, 10.91214919, 6.97674709, 19.07419723, 39.21001148, 24.04734913, 15.04493270
15.49516053, 10.36580918, 12.26580613, 7.84219357, 15.88080602, 40.16808435, 20.95471307, 15.99140394
22.47776679, 21.75775724, 18.62793601, 10.89265808, 18.29822396, 37.38181376, 18.90568698, 25.57635627
26.07441275, 22.38247082, 17.38605763, 10.73778376, 22.58428657, 30.12681530, 26.62987045, 28.27808339
22.48888614, 15.64288976, 6.72123501, 7.63544367, 25.45486201, 34.82420135, 27.35187379, 21.04400152
20.43404023, 19.71547615, 11.92895637, 10.63367293, 29.41343231, 36.44413533, 21.48487840, 23.52764332
23.02390063, 16.21958692, 11.57043647, 10.09826718, 27.40209846, 32.66955770, 24.13296501, 22.79309106
19.38556164, 8.09011743, 5.48862460, 5.99166087, 21.14296573, 32.80510631, 24.61909828, 17.95410816
15.09718517, 8.64146978, 13.77406984, 8.71923162, 21.13468713, 28.86390479, 25.95380512, 17.37383090
15.61249500, 8.54107722, 14.53186155, 9.04018805, 20.69178581, 27.47089369, 25.09930278, 14.45683229
14.41006593, 8.48233458, 11.55746512, 6.96239901, 17.38605763, 35.12264227, 23.36771277, 16.06471288
15.77973384, 11.93209956, 16.55067974, 8.08393469, 21.20848887, 39.60113635, 20.64703369, 14.73431369
17.42914226, 12.30243878, 16.73992234, 9.50789146, 22.89814403, 36.27602514, 16.53481176, 16.82037455
12.83744523, 10.17595204, 14.08190328, 8.95823643, 15.85559838, 34.55213452, 22.55770378, 17.31762108
11.43022309, 11.12766822, 18.48512916, 10.00000000, 14.35792464, 30.19602623, 25.31649660, 12.37436867
13.56005162, 10.94988584, 19.41198084, 10.98749289, 15.96010652, 25.97595042, 23.58654277, 13.35664629
12.11816818, 11.97706141, 20.98511377, 10.78888317, 14.36053620, 28.45918130, 22.79034883, 12.96823041
14.68928181, 15.50241917, 25.49411697, 11.19598142, 14.74109901, 32.30982823, 19.63415392, 15.18963462
18.20096151, 15.48466984, 23.55472352, 10.27131929, 19.52114238, 33.00265141, 17.67908369, 23.65480924
14.98916275, 14.53444185, 19.02629759, 9.00138878, 17.49357025, 32.37746130, 18.39972826, 24.61300469
12.50299964, 13.93735986, 20.52681173, 10.31018914, 12.80429615, 27.90250885, 15.07564261, 20.76053949
13.40242515, 11.19598142, 19.16376790, 9.25742945, 13.21930407, 24.50816191, 14.79357969, 18.36572895
12.18913451, 9.60598772, 15.27334279, 5.46808925, 15.11621646, 24.63381822, 13.94184349, 16.83077538
10.43791167, 9.17060521, 17.09678332, 6.71192968, 15.55875959, 22.77059507, 10.03493896, 14.41787086
8.03430146, 7.59769702, 16.34242944, 6.91013748, 11.50760618, 22.57598281, 9.70695627, 9.19102823
9.66824700, 6.52111954, 12.78671185, 5.34322000, 9.00694177, 23.56480426, 8.91207047, 9.29650472
9.14877041, 5.17445649, 6.74907401, 3.10644491, 7.98122798, 23.87519633, 11.67797071, 9.71853898
7.31949452, 5.96238207, 3.00000000, 3.01247407, 9.55641146, 23.75710420, 10.89610022, 10.30169889
7.83262408, 6.09097693, 2.97909382, 3.60555128, 13.52405265, 32.39212867, 9.13783344, 10.43671404
7.62889245, 4.76182738, 3.28633535, 3.74499666, 14.71903529, 34.14893849, 11.05441088, 10.57000473
7.37224525, 4.73286383, 3.10644491, 3.81772183, 16.04836440, 27.69160523, 13.65100729, 10.75987918
7.16414684, 4.14427316, 2.31840462, 3.11046620, 14.57995199, 21.52614689, 15.93188627, 10.66419242
7.07990113, 4.31856458, 2.76134025, 3.25192251, 11.12879149, 21.66794868, 14.32742126, 12.29532431
8.17618493, 4.83476990, 2.75227179, 3.39484904, 10.39591266, 21.07249392, 16.05848685, 14.12090649
8.95963169, 5.66127194, 2.29673682, 2.95803989, 10.77613103, 21.45635104, 17.53425219, 13.01537552
7.62889245, 6.21892274, 2.39269722, 12.17784874, 12.74264494, 24.79667316, 18.37933622, 9.05538514
7.82623792, 4.96235831, 2.38746728, 12.28108301, 12.71514845, 22.85224278, 17.80308962, 9.60338482
9.83996951, 4.90153037, 6.06630036, 4.38463225, 13.92479802, 24.65765601, 15.23646941, 13.87443693
11.30265456, 7.62069551, 8.17159715, 5.84807661, 15.81296936, 30.83423422, 16.39054606, 20.69963768
12.35212532, 10.33319892, 8.91066776, 6.54599114, 17.63731839, 37.51199808, 23.37894352, 23.92435997
11.83744060, 10.84089480, 9.25202680, 5.98748695, 18.94399641, 34.29613681, 24.17591777, 19.90665718
9.92219734, 11.31591799, 8.21279490, 5.31977443, 17.69745744, 31.50991907, 17.38390060, 15.49838701
8.92888571, 13.68027777, 6.16238590, 5.39212389, 14.67736352, 31.41774976, 17.63377441, 17.67271909
9.71596624, 13.97408315, 4.28660705, 11.91847306, 16.43167673, 24.36544685, 17.03599131, 18.25719036
9.36082261, 11.52605744, 4.00936404, 11.88696765, 18.69491910, 22.68424563, 16.10279479, 18.22841189
9.60468636, 9.64235448, 4.24852916, 5.51361950, 18.36232556, 26.92768093, 18.99671024, 25.56462399
9.68762097, 8.24772696, 3.76164857, 4.29243521, 15.97811003, 35.29341298, 19.56910831, 23.26048151
8.47643793, 7.63380639, 3.22490310, 2.96647939, 15.50645027, 32.91694093, 19.38943011, 14.11205159
7.86288751, 8.05760510, 3.47491007, 3.38747694, 15.04077791, 26.04659287, 18.01180169, 13.52867325
6.80441033, 7.23014523, 3.13448560, 4.20416460, 15.31910572, 27.28369476, 13.34634782, 12.95086870
7.84856675, 6.81909085, 3.16227766, 4.60705980, 17.00955614, 24.90030120, 11.14338369, 13.34634782
8.88819442, 6.68767523, 2.67861905, 4.16233108, 14.57909462, 21.70656583, 11.28826825, 15.29869275
8.37257428, 5.80086200, 2.86792608, 11.77709642, 15.41671171, 26.59887216, 11.28162222, 14.64923206
7.87559522, 5.63693179, 3.22490310, 12.18092772, 17.72991822, 31.47340147, 10.13533423, 11.81207010
8.08393469, 7.30068490, 3.04959014, 4.97995984, 15.22744233, 29.55714804, 10.85011521, 10.32351684
8.56592085, 7.82304289, 2.99165506, 3.50713558, 10.25548634, 26.33106530, 11.79724544, 9.19646671
7.38918128, 6.41092817, 2.49499499, 2.84165445, 7.88511255, 20.29655143, 8.23711114, 10.24817057
8.34266145, 6.42650761, 2.73404462, 3.09838668, 10.53684013, 24.61351255, 9.14330356, 9.57470626
8.22800097, 6.87568178, 3.47491007, 4.34741302, 12.72202814, 27.41578013, 10.71680923, 8.65303415
5.54301362, 5.77494589, 2.96647939, 4.05277683, 12.88118783, 20.99523756, 9.02911956, 6.93902010
5.73803102, 4.78800585, 2.39791576, 3.03315018, 13.65100729, 20.98451810, 9.15423399, 5.55652769
5.67670679, 4.51663592, 2.54460213, 2.94108823, 12.60753743, 20.94456970, 10.20416582, 7.79262472
5.41294744, 5.01248441, 2.43413229, 2.77938842, 11.55746512, 20.57850821, 12.40161280, 10.42353107
4.79322438, 4.52493094, 2.30759615, 3.15832234, 11.34900877, 23.17379986, 12.28413611, 11.23165170
4.23379263, 3.27871926, 2.01246118, 3.07814879, 8.96939240, 23.03692688, 9.31262584, 9.04986188
4.68241391, 3.37638860, 1.95576072, 2.78836870, 10.68293031, 21.02379604, 8.07000620, 6.05392435
5.91185250, 3.85681216, 2.26936114, 3.22490310, 12.70924860, 20.60279107, 8.75071426, 6.25899353
6.09918027, 4.39317653, 2.24722051, 3.54259792, 10.71447619, 19.84313483, 9.76217189, 7.69252884
5.15751878, 4.28952212, 2.53968502, 3.58468967, 13.00384559, 20.18229422, 9.25877962, 8.50881895
5.15751878, 4.60434577, 2.90258505, 3.38378486, 13.91042774, 20.96067747, 9.48683298, 10.66770828
6.09302880, 4.86569625, 2.77037904, 3.85032466, 15.20937211, 19.91167999, 9.94736146, 9.83996951
6.62382065, 6.99821406, 2.87662997, 4.18330013, 16.87009188, 21.29377843, 10.16489056, 8.03274548
7.27667506, 7.71200363, 4.59347363, 4.85283422, 13.94363654, 26.64254117, 12.76910334, 12.39455526
6.95521387, 7.19374728, 4.96235831, 5.12591455, 13.60973916, 28.16336273, 15.77418778, 17.85287092
5.52494344, 8.74785688, 4.02802681, 4.33877863, 13.91222484, 31.42888799, 16.19799370, 16.36535976
7.67789034, 9.62678555, 4.35028735, 5.38284311, 17.35943547, 31.13157561, 16.96835290, 9.77241014
9.32469839, 10.89495296, 4.05277683, 5.38052042, 17.39108967, 25.23341039, 15.32644773, 13.12916601
7.86288751, 9.90706818, 2.98328678, 3.65718471, 11.84377474, 25.19771815, 10.05609268, 12.88506888
6.38357267, 6.82641927, 2.52982213, 2.95803989, 11.12542134, 24.80221764, 9.43795529, 8.53082645
7.24741333, 5.88005102, 2.56904652, 3.04959014, 10.58300524, 22.96355809, 11.56827558, 10.40792967
7.44983221, 5.22972275, 2.75227179, 3.80460248, 11.83427226, 22.74532919, 11.85010548, 11.44552314
7.81504958, 5.61471282, 2.74317334, 4.27784993, 13.25801644, 21.42895238, 10.87887862, 11.58770901
8.12403840, 5.26307895, 2.65518361, 3.75499667, 12.12847888, 17.85357107, 9.62159031, 11.99166377
6.92459385, 4.81144469, 2.87228132, 3.24422564, 12.04055647, 17.44562983, 8.51175658, 11.90798052
7.36715685, 5.65022123, 2.72488532, 2.98328678, 10.40552738, 19.22043184, 7.94197708, 10.86508168
8.18687975, 6.15020325, 2.78836870, 3.77491722, 12.38951169, 20.19096333, 7.30410843, 9.73139250
7.53989390, 5.85448546, 3.05368630, 4.10487515, 14.36923798, 19.94805755, 8.06070717, 8.72066511
5.80301646, 5.11126208, 2.68328157, 3.15039680, 12.56682140, 17.85427120, 6.41677489, 7.49833315
5.24404424, 4.91934955, 2.31840462, 2.63153947, 10.45705503, 19.87272000, 5.51815186, 5.77278096
6.28291334, 4.91426495, 2.44438131, 2.85482048, 10.29441596, 22.23117181, 7.21630099, 6.31466547
7.06753139, 5.52041665, 3.00416378, 3.24807635, 14.47411483, 25.18977967, 12.57378225, 9.61249187
8.09629545, 7.86447710, 4.28369000, 4.94974747, 16.29340357, 30.96409211, 27.61385522, 11.26720906
8.14555093, 9.31933474, 4.60977223, 5.22494019, 14.74194695, 32.99280225, 34.93994848, 14.13594709
8.52349693, 9.81962321, 3.70135110, 3.71819849, 12.53195914, 34.83819743, 33.03899212, 14.99583275
8.72782905, 9.55379506, 3.15436206, 3.01247407, 12.16655251, 33.53841082, 26.26927863, 11.60495584
7.68602628, 8.12865302, 3.09838668, 3.04138127, 13.78586232, 30.74898372, 16.06082190, 9.81707696
6.72867000, 6.49037749, 3.13847097, 3.99687378, 13.42851444, 26.91189328, 11.46080276, 8.69626357
6.98569968, 5.59240556, 3.34664011, 4.19225476, 12.02289483, 26.41259169, 10.85357084, 7.92779919
7.99531113, 8.72496418, 3.23264598, 3.46770818, 11.15459547, 27.62154956, 9.65142477, 8.41278789
8.29759001, 8.38749069, 2.85043856, 3.29772649, 10.10940156, 22.85552450, 7.92779919, 7.92148976
7.11336770, 5.25119034, 2.92403830, 3.65376518, 12.09338662, 25.86696735, 10.04116527, 10.32714869
5.82880777, 6.43039657, 2.93683503, 3.51069794, 13.48146876, 23.21421978, 10.85817664, 10.06106356
6.65770231, 6.21288983, 2.48495473, 3.02489669, 12.07166103, 15.67402310, 10.34287194, 7.85493475
7.30410843, 5.26070338, 2.19089023, 2.90258505, 11.27275477, 15.53785700, 9.23038461, 12.51299325
6.50960828, 5.50000000, 2.47487373, 3.04959014, 12.38547536, 18.12043046, 7.15017482, 12.03224834
6.49230314, 5.45435606, 2.41867732, 2.97069016, 13.00769003, 22.62133948, 7.95298686, 7.74919351
6.75647837, 5.07690851, 2.33987179, 3.02902625, 11.64581470, 20.80504746, 10.57591604, 8.96660471
5.54752197, 5.25119034, 2.49499499, 2.79284801, 8.53961357, 16.56955039, 11.27940601, 7.90885580
6.56124988, 6.12168278, 2.57875939, 2.51992063, 9.36482781, 21.51220584, 9.34077085, 9.27227049
9.39015442, 9.06366372, 2.75680975, 2.95381110, 10.24451073, 23.71760949, 11.10517897, 12.01145287
9.46308618, 10.16980826, 5.27494076, 3.86328875, 10.20539073, 22.99728245, 14.03032430, 11.55313810
8.87271097, 8.64580823, 6.86294397, 4.72757866, 11.81841783, 23.14033275, 13.70583817, 14.04546190
8.25984261, 7.39425453, 5.87154154, 4.44971909, 12.28515364, 22.53552751, 13.53513945, 16.18255233
7.69740216, 6.63890051, 3.91790760, 3.75499667, 11.06571281, 22.88012238, 12.96148140, 14.02052068
7.20416546, 6.41092817, 3.94651745, 4.16833300, 9.36482781, 18.83746267, 9.11729126, 10.14765983
5.85448546, 6.92459385, 4.13521463, 4.00312378, 9.53152664, 13.81937046, 8.13787442, 9.24256458
7.00892288, 7.36206493, 2.86356421, 3.05777697, 10.21273715, 19.16702898, 11.87013058, 10.80277742
7.21110255, 6.81909085, 2.55440795, 2.67394839, 9.40345681, 19.50769079, 10.62896985, 10.91214919
6.88113363, 5.58121850, 2.93257566, 2.88530761, 9.37416663, 14.46634024, 6.88294995, 9.82852990
6.76387463, 5.99166087, 2.91118533, 3.22877686, 16.58689242, 17.02498164, 7.50666371, 9.90075755
6.10327781, 6.27694193, 3.05368630, 3.38378486, 20.37154879, 19.00592013, 9.96117463, 11.70363191
6.51344763, 4.97242396, 3.04138127, 3.42417873, 15.38668255, 17.43272784, 9.37683315, 11.08602724
6.87022561, 4.41304883, 2.39269722, 2.86356421, 10.35253592, 14.59965753, 6.14003257, 8.84024887
7.40607858, 4.62331050, 2.46475151, 3.03726851, 12.01353403, 17.82764707, 7.23187389, 7.43471587
7.14667755, 5.80517011, 2.56417628, 3.17017350, 12.02497401, 22.35005593, 8.59360227, 7.28697468
6.28689112, 6.39531078, 2.16217483, 2.60288302, 10.21151311, 20.79663434, 7.33655232, 7.37054950
6.65206735, 5.65022123, 2.43413229, 2.50000000, 10.60542314, 16.11986352, 6.82092369, 7.65996084
7.40607858, 5.61693867, 2.38746728, 2.42383993, 10.76452507, 13.09007257, 6.63701740, 7.90727513
7.11512474, 5.21296461, 2.07364414, 2.53475837, 9.85520167, 14.60393783, 4.28660705, 6.76017751
7.11336770, 4.96990946, 2.24165118, 2.61247010, 9.97997996, 15.45719897, 5.34088008, 6.25699608
6.95521387, 5.89703315, 2.24165118, 2.43413229, 8.34415963, 13.40055969, 5.67009700, 8.11480129
6.28291334, 6.23297682, 2.42899156, 2.29128785, 9.30456877, 14.14567072, 4.60705980, 9.09670270
6.70261143, 6.09507998, 2.77037904, 2.60288302, 11.30154857, 15.73213272, 4.56070170, 7.31266025
6.02079729, 6.04979338, 2.72029410, 2.64575131, 10.61249264, 15.26024246, 5.15024271, 11.23053872
5.44518136, 6.13799642, 2.84165445, 3.10241841, 10.89380558, 14.58509513, 5.88854821, 12.25561096
5.94768863, 5.63471383, 2.84165445, 3.37638860, 11.63615057, 15.18469624, 6.01248701, 10.42233179
5.74020906, 4.85025773, 2.78388218, 3.32791226, 11.10630452, 15.62609996, 5.71839138, 10.95445115
7.93095202, 4.66904701, 2.76134025, 3.75499667, 11.26055061, 14.84924240, 8.08393469, 12.35313725
8.71206061, 5.08183038, 2.62202212, 3.32415403, 10.86853256, 17.60113633, 11.65118020, 12.17579566
7.12214855, 5.81162628, 3.12649964, 3.06186218, 11.14001795, 17.96733147, 11.99687459, 9.29381515
7.06399320, 5.53398591, 3.07408523, 3.76164857, 13.30977085, 19.20742044, 13.96692522, 11.55530181
6.91375441, 4.78278162, 2.59326050, 3.44963766, 12.97497592, 20.28731131, 16.32253044, 14.14390328
6.85747767, 5.17445649, 2.61247010, 2.66458252, 10.22130129, 17.07263893, 13.24103470, 12.93928128
5.78575838, 5.06458290, 2.29673682, 2.75680975, 11.42256539, 16.80624884, 11.24499889, 9.12003289
5.86088730, 4.89642727, 2.17944947, 2.95803989, 11.82159042, 19.78446360, 11.59849128, 10.33319892
6.39726504, 4.79061583, 2.53968502, 2.53968502, 9.68891119, 19.06174179, 9.65271982, 11.21828864
6.25899353, 4.69840398, 2.57390754, 2.37697286, 8.66602562, 14.94489880, 7.15017482, 9.65142477
7.16414684, 4.68774999, 2.40312297, 2.73861279, 9.37549999, 16.58613879, 5.05717312, 9.59296617
7.48164420, 4.79583152, 2.83284309, 2.99583044, 11.21605991, 17.58621619, 9.03188795, 8.00468613
7.06222345, 5.05964426, 2.92831009, 3.32791226, 11.49130106, 21.79564177, 9.30322525, 8.97357231
6.04152299, 5.91185250, 2.31840462, 3.18982758, 10.78076992, 22.86044619, 8.08857219, 9.87674035
6.44786786, 6.44010869, 1.85741756, 2.65518361, 11.11080555, 19.56399755, 10.26766770, 10.75406900
7.27151979, 6.63890051, 2.26936114, 2.26936114, 10.99431671, 19.23603389, 10.83743512, 12.03847997
7.31436942, 6.91375441, 2.61247010, 2.31840462, 10.75523129, 20.11218536, 9.10357073, 10.30048543
7.19548470, 5.47950728, 2.50499501, 3.07814879, 10.53328059, 20.21076446, 6.70447612, 8.48380811
6.76572243, 4.15632049, 2.38746728, 2.95803989, 9.75448615, 24.38698423, 7.01605302, 7.48331477
6.85930026, 5.48862460, 2.03715488, 2.27486263, 11.65761554, 25.88532403, 6.60302961, 6.60113627
6.19475585, 6.42845238, 2.21923410, 2.51495527, 12.44588285, 22.88722351, 5.05222723, 8.53082645
5.82237065, 5.79007772, 2.49499499, 2.71569512, 11.02156976, 19.51858089, 5.80732296, 10.85241909
6.07659444, 4.57438520, 2.28035085, 2.71569512, 10.41153207, 16.51135973, 6.89202438, 11.91007976
5.41294744, 4.43846820, 2.26384628, 2.53475837, 10.59952829, 18.04923821, 6.99106573, 9.73010791
5.70964097, 4.33589668, 2.20794022, 2.48997992, 9.95489829, 18.06239187, 6.09097693, 5.79655070
6.92820323, 4.18927201, 2.29128785, 2.87662997, 10.61838029, 17.28944765, 5.20816666, 9.13920128
7.15541753, 5.25357021, 2.57390754, 2.93683503, 10.33803656, 14.53530185, 5.26307895, 9.91841721
6.85383105, 5.91396652, 2.89395923, 3.09434969, 7.50166648, 12.52397700, 5.03487835, 6.81909085
6.64830806, 5.00499750, 2.82842712, 3.00000000, 9.41275730, 14.37445651, 4.52216762, 6.59734795
5.98957428, 4.15632049, 2.10950231, 2.15638587, 11.11755369, 13.75227254, 3.35037311, 8.47348807
5.59240556, 5.97285526, 2.55440795, 3.11046620, 9.99249719, 11.32806250, 5.59016994, 8.77353976
6.18667924, 5.82237065, 2.65518361, 3.21714159, 9.27227049, 13.78586232, 6.12780548, 8.09475139
6.58786764, 3.57770876, 2.02484567, 2.29128785, 8.63712915, 13.72315561, 4.54147553, 8.58778202
6.75647837, 3.23651047, 2.35053185, 2.37170825, 9.46572765, 13.30225545, 4.00624512, 8.15935046
6.92639878, 3.78813938, 2.43413229, 2.51992063, 9.41806774, 14.09875881, 4.73814310, 9.25877962
7.30924073, 4.99249437, 2.05548048, 2.46475151, 8.78208404, 15.88552801, 4.95479566, 9.38083152
7.20243015, 5.56551884, 2.09165007, 2.68793601, 9.86027383, 18.76499400, 4.67707173, 6.32060124
8.30812855, 5.96447818, 2.35053185, 2.99583044, 9.01526483, 17.79044687, 5.57449549, 8.02184517
8.56738000, 5.69649015, 2.55929678, 2.79732015, 6.85747767, 16.18873065, 5.05470078, 9.82980163
7.45150991, 4.58802790, 2.50000000, 2.78836870, 7.50166648, 15.90675957, 4.63950428, 9.03050386
7.30239687, 3.65718471, 2.00000000, 2.43926218, 9.37283308, 16.56879597, 4.37892681, 7.05868260
7.03384674, 3.37268439, 2.30759615, 2.16794834, 8.95823643, 17.64936259, 3.97177542, 5.80517011
8.18535277, 5.36190265, 2.88097206, 2.81513765, 9.59557190, 19.60357110, 6.04979338, 7.76691702
11.04309739, 6.49422821, 3.20936131, 3.96232255, 11.17474832, 19.82801049, 6.91194618, 10.86393115
10.40312453, 5.50681396, 2.73404462, 3.47491007, 10.61602562, 18.64671553, 6.56315473, 9.82089609
8.83317610, 3.78483817, 1.80277564, 2.14476106, 8.34116299, 17.10116955, 6.63513376, 6.46335826
8.40386816, 4.19821391, 2.20227155, 2.75227179, 8.72353140, 14.64325783, 6.36592491, 7.29211903
8.17006732, 4.77231600, 2.23606798, 2.62678511, 10.21763182, 16.86935091, 6.36592491, 6.90470854
9.42602780, 4.71963982, 2.19089023, 2.39269722, 10.42233179, 17.70522522, 7.11336770, 6.63701740
7.72495955, 5.22972275, 2.21359436, 2.25831796, 8.68907360, 13.57387196, 6.08276253, 7.35187051
8.14555093, 5.89279221, 2.15638587, 2.32379001, 5.17687164, 13.31258803, 4.83735465, 6.98032951
9.85773808, 5.36889188, 2.18517734, 2.65988722, 6.20483682, 13.52590108, 4.84767986, 9.66953980
8.19603563, 5.61025846, 2.47487373, 2.53968502, 7.04095164, 11.85854123, 5.06458290, 10.12052370
7.12214855, 5.62138773, 2.40831892, 2.33987179, 8.23255732, 17.06018757, 4.98497743, 7.93882863
7.59934208, 4.18927201, 1.87749834, 2.18517734, 9.95238665, 17.71722326, 4.13823634, 8.47348807
8.12403840, 5.11126208, 2.15058132, 2.25831796, 10.03867521, 15.54750784, 5.84807661, 10.60424443
7.97809501, 5.43139025, 2.21359436, 2.54460213, 10.79120012, 18.54858485, 6.38553052, 10.81665383
7.19548470, 4.46094160, 2.17944947, 2.93257566, 9.50394655, 19.81602887, 6.23698645, 7.77335192
7.38241153, 4.50277692, 2.07364414, 2.60288302, 7.74112395, 19.61568250, 6.18667924, 9.36749700
7.58122681, 4.52493094, 1.85741756, 2.14476106, 8.76213444, 16.19259090, 4.70106371, 10.15135459
7.25775447, 4.51663592, 2.30217289, 2.97489496, 9.26822529, 11.97706141, 5.50681396, 8.25075754
7.10809398, 5.61471282, 2.88963666, 3.19374388, 9.51183473, 14.96245301, 5.98539890, 7.63708059
7.86129760, 5.42908832, 2.84165445, 2.82842712, 8.66602562, 16.49772712, 4.44971909, 7.72495955
8.21735967, 4.60705980, 2.38222585, 2.56417628, 8.77923687, 13.58307771, 5.12103505, 10.74709263
8.15475322, 4.50277692, 2.04939015, 2.41867732, 9.01665126, 14.00714104, 5.05470078, 10.72497086
8.13633824, 5.17445649, 2.46475151, 2.52982213, 11.25721991, 17.70098867, 4.40170422, 8.09629545
7.50999334, 5.00000000, 2.91976026, 2.83284309, 11.75797602, 17.43559577, 5.28913982, 7.75564311
6.20483682, 4.39317653, 2.70185122, 2.96226265, 9.15559938, 16.79136683, 5.50000000, 7.25258575
4.83476990, 5.20096145, 2.44948974, 2.65047166, 9.11866218, 18.19477947, 4.87083155, 7.24223722
5.61471282, 5.72931060, 2.18517734, 2.32379001, 9.60598772, 18.05893131, 4.46374282, 6.60113627
6.52303610, 5.04479930, 2.01246118, 2.07364414, 9.04848054, 16.84933233, 4.73286383, 9.52496719
7.24396300, 4.15932687, 2.28035085, 2.13892496, 8.39493895, 16.71750579, 4.49444101, 10.24207010
7.26291952, 4.43565102, 2.06760731, 2.19658826, 8.35164654, 16.07482504, 8.52936105, 6.67270560
7.38918128, 5.12103505, 2.00000000, 2.07364414, 7.72819513, 13.57939616, 8.81334216, 8.74499857
8.96242155, 5.65243310, 2.16794834, 2.01246118, 6.61059755, 14.64581852, 5.01497757, 8.51762878
8.78635305, 5.25832673, 2.20794022, 2.25831796, 6.88294995, 14.08900280, 3.99374511, 6.89021045
6.95521387, 5.46351535, 2.38746728, 2.50000000, 6.68019461, 13.36132478, 6.88294995, 7.51831098
6.98212002, 6.15832770, 2.55929678, 2.74772633, 9.22090017, 19.02695456, 9.75320460, 8.55277733
8.63568179, 5.56327242, 2.44438131, 2.76134025, 10.25060974, 21.10627869, 9.07331252, 9.21411960
7.99843735, 4.98998998, 2.14476106, 2.26384628, 7.82464057, 18.43298674, 8.10092587, 7.75403121
6.65770231, 4.25147033, 2.07966343, 2.08566536, 7.43807771, 15.34030639, 8.07465170, 7.75886590
6.35413251, 4.26028168, 2.11541958, 2.48495473, 7.38579718, 13.23064624, 6.95341643, 7.38241153
6.08070720, 5.72494541, 2.29128785, 2.89827535, 8.80908622, 12.47898233, 5.50908341, 10.24451073
6.51728471, 5.47494292, 2.24165118, 2.75680975, 10.10198000, 15.68598100, 7.03029160, 10.46541925
7.24223722, 5.91819229, 2.19658826, 2.30217289, 8.01872808, 15.40129865, 7.20416546, 7.04982269
6.67083203, 6.18869938, 2.35584380, 2.57390754, 8.79488488, 18.77098825, 10.01873245, 6.94262198
7.25603197, 4.89131884, 2.61247010, 2.91976026, 10.02247474, 24.79969758, 15.94678651, 10.87772954
7.85652595, 4.94469413, 2.72946881, 3.00000000, 9.60598772, 23.65322388, 15.56116962, 11.63615057
7.22322643, 5.82666285, 2.51495527, 3.27490458, 10.98749289, 21.81112102, 13.07765269, 15.11621646
7.34846923, 6.76572243, 2.83725219, 3.36526373, 11.22051692, 20.92546296, 13.80579588, 15.29460689
6.91736944, 6.34231819, 3.19374388, 3.08625987, 11.19151464, 22.39419568, 12.30447073, 8.60087205
7.19548470, 5.93717104, 2.88097206, 3.14245127, 11.28162222, 20.94994033, 13.20795215, 7.68114575
8.07929452, 6.90108687, 2.91976026, 3.36154726, 12.16757987, 17.95410816, 12.15935854, 7.60263112
9.25202680, 6.11555394, 2.81513765, 3.22877686, 12.37032740, 19.73068676, 10.80046295, 11.89432638
8.22952003, 5.16962281, 2.81957444, 3.31285375, 11.99479054, 18.02151492, 10.31988372, 14.45942599
8.29909634, 5.42678542, 2.86356421, 3.25576412, 11.40285052, 20.91231694, 6.10532554, 11.29158979
9.85012690, 5.14538628, 2.25277607, 2.88097206, 10.44629121, 20.55115569, 4.86569625, 8.61539320
8.27496224, 4.66100847, 1.96214169, 2.74317334, 10.77613103, 14.65093854, 4.18031099, 9.41674041
7.71362431, 5.47494292, 2.42899156, 2.59807621, 9.35547968, 14.95242455, 4.12007281, 9.47100839
7.22841615, 5.46580278, 2.59326050, 2.64102253, 7.47161295, 15.47578754, 3.81772183, 8.46020094
6.48845128, 4.89387372, 2.38222585, 3.12249900, 11.08038808, 16.68157666, 3.92428337, 7.71848431
7.36885337, 5.21536192, 2.31840462, 2.97489496, 12.16449752, 16.56124995, 7.95612971, 10.33682737
7.14492827, 5.50000000, 2.15058132, 2.41867732, 8.47938677, 15.88710169, 8.40684245, 11.53473017
6.36003145, 6.32257859, 2.44948974, 2.60288302, 8.56883889, 17.39540169, 7.62725377, 8.44245225
7.45989276, 7.45821695, 3.14245127, 3.18590646, 11.80360115, 22.50944246, 7.69415362, 10.28591270
7.51997340, 7.67951821, 2.93683503, 3.10644491, 13.03361040, 22.49166512, 5.70964097, 12.37436867
7.83900504, 6.79153885, 2.63153947, 2.84165445, 11.34680572, 16.67558095, 5.25832673, 12.68167970
7.88986692, 6.39921870, 2.88963666, 3.17017350, 10.00624805, 14.07035892, 6.04772685, 10.93732143
6.30277717, 7.32461603, 2.65047166, 2.86356421, 10.72030783, 17.76865217, 6.29285309, 8.08238826
7.35527022, 7.04450140, 2.51992063, 3.07814879, 11.36221809, 20.67970019, 4.78016736, 7.79422863
8.78350727, 5.00749438, 2.48495473, 3.20156212, 11.82264776, 19.53970317, 4.67974358, 8.41278789
7.85652595, 4.98246927, 2.40831892, 2.57875939, 10.58890929, 21.49709283, 6.15426681, 7.98122798
6.49037749, 5.78359750, 2.23606798, 2.42383993, 8.65736681, 20.26388413, 7.79903840, 5.48862460
6.73795221, 5.59464029, 2.30759615, 2.43413229, 8.57904424, 17.41335694, 7.08166647, 8.30060239
6.70261143, 6.18869938, 2.22485955, 2.47991935, 7.21110255, 16.06004359, 6.10122938, 9.94610477
8.11171992, 6.36396103, 2.18517734, 2.49499499, 6.45174395, 15.40373331, 5.80301646, 8.42614977
8.05605362, 6.04152299, 2.26936114, 2.38746728, 7.20590036, 17.62455673, 4.44971909, 6.55171733
6.70074623, 7.04982269, 2.21923410, 2.40312297, 7.35187051, 20.02248736, 4.46094160, 6.16035713
6.74536878, 6.58976479, 2.52487623, 2.78836870, 9.51577637, 19.84187491, 4.47772264, 6.67270560
7.21110255, 5.01746948, 2.40312297, 2.78836870, 12.20962735, 20.73583854, 4.26907484, 6.49230314
7.35017007, 5.36423340, 2.15638587, 2.39269722, 11.71324037, 22.11504013, 4.77755167, 5.15751878
7.63053078, 5.31036722, 2.01866292, 2.60768096, 10.30412539, 18.70427759, 4.33589668, 5.80301646
7.62889245, 5.41525623, 2.15058132, 2.91976026, 10.14642794, 19.21848069, 4.35315977, 6.62004532
6.66895794, 5.66568619, 2.32379001, 2.87662997, 9.57601170, 19.37137063, 4.35315977, 6.09302880
5.69649015, 5.63471383, 2.31300670, 2.61725047, 8.79488488, 17.17701953, 3.15832234, 6.44204936
5.75325995, 5.85662019, 2.95803989, 3.09030743, 11.92371586, 19.79330695, 3.90512484, 8.06380803
6.43622560, 5.60802996, 2.98747385, 3.17804972, 12.57477634, 17.72921318, 4.89387372, 7.53989390
6.52303610, 5.35023364, 2.38222585, 2.57875939, 10.15627885, 13.89244399, 4.30987239, 5.99374674
6.43622560, 4.87852437, 2.21359436, 2.56417628, 10.87428159, 17.34646938, 3.53906767, 5.72276157
6.25899353, 5.55427763, 2.37697286, 2.52982213, 10.11063796, 16.10977964, 4.37035468, 5.57449549
5.60802996, 5.35957088, 2.19089023, 2.45458754, 7.13267131, 11.32916590, 4.55796007, 7.05159556
5.60133913, 5.09656747, 2.19658826, 2.62678511, 7.03206940, 10.73429085, 4.03732585, 8.52056336
6.25099992, 5.72057689, 2.32379001, 2.44948974, 8.93028555, 15.15008251, 3.68442669, 7.52495847
6.61059755, 4.76969601, 2.11541958, 1.95576072, 9.94987437, 16.20262324, 4.11703777, 7.88669766
5.83309523, 4.41304883, 2.35053185, 2.53968502, 10.82935825, 18.60577867, 4.12310563, 8.31865374
4.98998998, 5.09901951, 2.35053185, 2.50499501, 9.16378743, 20.52193948, 3.44601219, 5.95818764
6.06836057, 5.58569602, 2.06760731, 1.96850197, 7.22841615, 15.76863976, 3.39852909, 5.58793343
6.42456224, 5.97494770, 2.29673682, 2.24722051, 6.85383105, 11.52931047, 3.81772183, 5.25119034
6.08276253, 5.74238626, 2.66458252, 2.65518361, 7.05691151, 9.98624053, 3.86328875, 4.48330235
5.71182983, 4.98246927, 2.63628527, 2.76134025, 6.94982014, 9.67083244, 3.55316760, 5.22254727
4.70637865, 3.57071421, 2.31840462, 2.27486263, 5.76628130, 11.67154660, 3.40954542, 7.64198927
5.77061522, 5.53850160, 2.37170825, 2.88530761, 8.30210817, 19.25876424, 5.56327242, 10.65129100
9.28439551, 8.16853720, 2.85919569, 3.67083097, 10.97838786, 26.80904698, 8.42021377, 13.69488956
12.14289916, 9.43398113, 5.41294744, 6.71565336, 13.75318145, 30.03955725, 19.16181098, 20.41812920
11.13328343, 8.95544527, 6.29285309, 8.42911621, 14.95994652, 29.21301080, 20.93501851, 20.41078146
8.15935046, 8.69338829, 4.86569625, 6.67645115, 12.19836055, 25.47695037, 18.05408541, 18.94531604
8.23711114, 9.71982510, 3.78153408, 4.63680925, 12.53395389, 21.91859941, 20.70205304, 19.35910638
9.01665126, 8.98053451, 3.75832409, 4.45533388, 12.68660711, 19.80971984, 17.17920254, 15.52659010
8.31865374, 9.13783344, 3.88908730, 4.18927201, 10.93846424, 20.09353130, 10.67239430, 15.58204094
7.57297828, 10.26766770, 3.72827038, 3.84707681, 9.65401471, 19.64433761, 8.71779789, 14.11293733
8.00468613, 10.85587399, 7.01070610, 4.88364618, 11.53364643, 20.36663939, 8.57612966, 13.09007257
11.73775958, 15.05988048, 15.73848786, 7.71686465, 13.84467407, 22.26207537, 9.00694177, 14.24341953
13.21741276, 27.88368699, 39.60492394, 29.48770930, 16.44764421, 30.45242191, 11.06458314, 18.61249580
12.81112798, 28.51052437, 38.92300091, 29.89481560, 20.58336707, 32.95223816, 15.71861953, 20.61007035
15.77418778, 19.37524193, 28.21037043, 11.47606204, 19.02498357, 28.58802197, 15.98514936, 20.51645681
15.90754538, 21.34654539, 41.29376466, 16.65382839, 17.04259370, 26.24261801, 14.86102285, 20.20024752
11.17698528, 18.06723554, 36.24120583, 16.19645023, 16.06704702, 26.37186000, 19.19114379, 19.41069293
8.06845710, 10.86278049, 20.19343953, 8.65158945, 15.30931089, 26.76518261, 19.70723218, 17.64298728
11.21383075, 11.37870819, 19.80214635, 9.85393322, 15.54831181, 23.99010213, 14.13859965, 14.99083053
11.62110150, 11.02497166, 23.63101775, 10.58890929, 17.30534599, 24.52396787, 9.87927123, 13.13868334
9.29112480, 16.77200048, 32.14809481, 13.98123743, 23.32916629, 25.03297825, 12.64911064, 9.14056891
10.48808848, 17.49571376, 31.59153368, 13.85640646, 19.85887711, 27.59846010, 12.56184700, 10.48928024
9.66178037, 12.60257910, 25.56511295, 11.20714058, 11.19821414, 25.47842224, 10.37545180, 11.59525765
9.15832954, 12.44889553, 23.08246087, 11.07587468, 12.50699804, 22.70242278, 8.91627725, 13.39682798
10.96585610, 13.91851285, 27.17949595, 9.66307405, 11.70469991, 23.38322048, 7.47997326, 14.70629117
10.46661359, 17.06897771, 35.68508092, 11.90693075, 13.34728437, 21.85291743, 8.23862853, 13.60055146
8.24469526, 14.35270009, 28.58758472, 10.38388174, 13.99196198, 18.25855964, 7.09048658, 12.38244725
7.21283578, 7.93882863, 19.10693591, 6.88658115, 10.83974169, 19.05846269, 6.10327781, 10.44629121
8.04829174, 9.82089609, 29.26303129, 9.68891119, 10.28712788, 23.30128752, 7.45989276, 10.84665847
6.97853853, 12.99230542, 32.31369679, 10.97269338, 9.54986911, 21.58587501, 6.94622199, 10.84320063
5.63027530, 12.89961240, 24.51632109, 8.53522115, 9.57340065, 20.56574822, 5.20336430, 10.53328059
4.96235831, 11.90063024, 21.43653423, 8.59360227, 12.25255075, 21.00119044, 8.08548081, 9.53939201
6.87749955, 14.88875415, 27.51772156, 11.20714058, 12.43583532, 20.22931042, 9.68504001, 9.24662100
8.63133825, 14.61420542, 23.50904081, 10.10198000, 19.70406050, 21.30258200, 11.63615057, 9.83742853
7.48498497, 11.30597187, 18.99210362, 7.68927825, 20.77799317, 20.75692655, 11.58663023, 11.19598142
7.07990113, 9.87167666, 23.85948449, 8.38152731, 13.78132795, 18.65475811, 9.33139861, 11.45534810
7.52661943, 8.67179336, 21.19197961, 8.38600024, 13.24009063, 21.66737178, 9.81198247, 9.16378743
7.57132749, 10.02746229, 17.42340380, 8.17924202, 12.96533841, 22.83692186, 9.44986772, 9.86154146
7.40945342, 11.53798076, 21.33717413, 7.96241169, 14.87615542, 19.40360791, 10.50238068, 9.18286448
6.72309453, 9.94484791, 19.30155434, 6.81175455, 14.31956703, 16.71900117, 9.59947915, 8.50147046
7.07460246, 9.99874992, 14.28110640, 6.96957674, 11.33247546, 20.86683972, 7.54486580, 9.25607908
7.64362479, 11.39078575, 14.82059378, 7.52163546, 13.91222484, 21.76062959, 8.32766474, 8.76641318
9.20054346, 10.79235841, 9.82089609, 5.68330890, 17.59190155, 15.93737745, 9.43927963, 9.73139250
8.42021377, 9.01526483, 9.06228448, 5.63249501, 18.61383894, 14.33352713, 8.50881895, 9.55379506
6.98748882, 10.38869578, 21.66044783, 16.04057356, 16.79880948, 18.51485890, 7.86129760, 10.44988038
7.22495675, 10.84550598, 22.52609598, 16.17946229, 15.25942332, 22.90087335, 9.56294934, 13.07096018
7.40439059, 9.81835017, 13.22875656, 7.52329715, 14.46115486, 21.36235006, 9.25877962, 13.08911762
8.09938269, 12.41772926, 17.88155474, 10.38026975, 14.15891945, 18.11353085, 8.21735967, 11.34019400
7.37054950, 11.45753027, 19.03352306, 10.41753330, 11.69401556, 16.43624045, 9.05814551, 9.98123239
5.87154154, 9.96242942, 16.21881623, 7.04272674, 11.33026919, 16.10589954, 11.87118360, 9.68116728
6.44398945, 9.99124617, 14.30209775, 5.97494770, 11.69829047, 20.51280088, 12.72988610, 11.60280139
8.14401621, 10.08835963, 11.04762418, 5.89279221, 13.92838828, 20.50426785, 12.72301065, 12.31056457
9.11317727, 9.45251289, 10.13286731, 5.29858472, 14.71818603, 21.15419580, 16.73469450, 12.11507326
8.00624756, 7.11336770, 8.62699252, 4.81663783, 13.25990196, 29.58039892, 21.63099628, 12.40967365
7.51997340, 9.96117463, 13.29849616, 7.23360215, 14.26534262, 28.00000000, 20.91112144, 9.93856126
8.29457654, 13.00480680, 21.30492901, 11.94361754, 14.91308151, 24.34440387, 22.23791807, 11.72070817
7.62889245, 14.57394936, 30.49057231, 13.77769937, 14.83576759, 29.68880260, 24.59268184, 14.14036775
7.31266025, 14.40052082, 35.16390195, 14.79949323, 13.91671657, 27.64235880, 23.95516646, 16.09036979
7.65996084, 14.68587757, 33.06546537, 15.58524944, 16.12916613, 29.12387337, 20.64945520, 17.62384748
8.07000620, 14.00803341, 28.47455004, 13.68849882, 15.83114020, 34.80193960, 16.42635078, 18.71897433
7.38748942, 11.60603291, 24.85155931, 13.39776101, 14.69948979, 32.36935279, 15.36554587, 16.93295603
6.36199654, 9.15013661, 22.75302178, 12.84717868, 16.18718629, 32.16403271, 15.72974889, 13.82660479
7.41788380, 10.05609268, 20.37154879, 10.00000000, 14.42133836, 27.65230551, 15.05240845, 12.16038651
7.82623792, 10.02247474, 18.13146436, 8.52642950, 10.63719888, 15.50000000, 11.78770546, 16.59819267
7.21110255, 8.89943818, 17.97080966, 8.21583836, 10.49285471, 19.82170527, 13.25613066, 18.68488694
7.82464057, 10.45705503, 18.20508171, 8.22496201, 11.33909167, 25.56315708, 12.10165278, 12.27293771
7.46659226, 9.32737905, 19.86579976, 8.78208404, 12.19631092, 23.62255278, 9.27766134, 9.06504275
6.25099992, 9.60468636, 19.96622148, 8.68619595, 13.44525939, 21.00238082, 10.38628904, 12.47497495
6.89021045, 9.94233373, 20.65248169, 9.05400464, 15.51450934, 22.17656421, 16.60271062, 13.06235048
8.86002257, 11.46625484, 23.57222942, 11.25833025, 19.31126614, 22.28003591, 18.50337807, 13.34728437
8.97217922, 12.05093357, 23.14249338, 11.42803570, 16.98749540, 24.53670720, 13.98838804, 15.39318031
8.70631954, 8.69338829, 20.78761651, 8.58050115, 14.35531261, 24.65360014, 12.75637096, 15.91461592
8.38003580, 8.58487041, 24.30997738, 8.72926114, 17.09605218, 30.58594448, 12.82867881, 17.58692696
6.90470854, 10.30291221, 23.51488890, 8.84872872, 15.88867521, 32.04411022, 11.56503351, 18.32075326
6.88839604, 10.23962890, 17.80659990, 7.61084752, 14.82481029, 22.65005519, 12.08408044, 15.42724862
8.58778202, 9.52627944, 16.62828915, 7.24741333, 15.25122946, 18.39157416, 15.46124186, 11.21048616
9.19510739, 8.32616358, 19.10955259, 7.64035339, 16.10822771, 17.33781993, 15.34763825, 10.68293031
7.03562364, 7.74758027, 23.20668007, 8.40684245, 15.25532694, 18.43908891, 12.22599689, 9.83615779
6.87568178, 8.89381808, 22.95648057, 8.41427359, 17.45207724, 26.64910880, 15.35496662, 11.45862121
8.25984261, 12.74068287, 23.64793860, 9.04986188, 18.08659725, 27.17535648, 17.78552782, 13.50925609
9.81325634, 17.48499357, 31.90258610, 14.85176757, 14.81468866, 20.75692655, 15.27907065, 14.66373077
9.09807672, 14.91391967, 33.34928785, 15.14348045, 12.28006515, 23.23198227, 11.57583690, 15.32563212
7.79102047, 11.57799637, 36.59200732, 13.01249400, 16.93074127, 25.88580692, 12.18503180, 13.71951165
7.25775447, 11.67904106, 34.92885627, 12.33896268, 18.69692488, 21.15537757, 11.54989177, 10.51308708
6.46529195, 8.06225775, 21.38165101, 7.91675439, 13.63543179, 18.26266684, 7.88035532, 9.11454881
7.19374728, 9.22632104, 17.28583235, 7.79422863, 11.16915395, 19.95933366, 6.97137002, 9.42602780
5.67890835, 9.47364766, 16.70179631, 8.00312439, 11.44770719, 21.62001388, 8.28402076, 8.25227241
5.95608932, 10.45825033, 21.67890680, 11.13889582, 14.60051369, 24.05462533, 11.32916590, 9.33005895
7.32802838, 12.25867040, 23.43608329, 11.07813161, 15.66764181, 23.91286265, 10.89380558, 10.93046202
8.47496313, 10.36822068, 16.55747565, 6.76387463, 12.87148010, 21.33307292, 8.36958780, 11.34570403
8.63278634, 9.63976141, 14.52497849, 8.14248119, 10.63719888, 18.09005252, 7.39932429, 15.09801311
6.63890051, 12.86953768, 28.87905816, 11.85643285, 10.44270080, 14.80287134, 6.82458790, 14.76312975
7.09401156, 12.44487846, 30.83261260, 12.65800142, 12.60852886, 14.26271363, 6.84287951, 10.94760248
7.51997340, 9.21140597, 19.42292460, 9.88180146, 13.04990421, 17.00661636, 6.43428318, 11.55854662
6.93000722, 11.27164584, 25.94754324, 10.01623682, 13.10057251, 22.12295188, 6.53834842, 11.64259421
6.70820393, 11.80360115, 27.84780063, 10.24207010, 12.83647148, 19.77308777, 5.44518136, 10.67005155
7.31607818, 10.63602369, 22.26375979, 9.18014161, 14.09609875, 14.26534262, 7.43303437, 10.51308708
8.59505672, 11.56503351, 22.72058538, 9.93981891, 15.05739021, 14.55249120, 7.80224327, 11.83321596
8.88397434, 12.58471295, 25.94320720, 15.09221654, 11.18704608, 14.77836256, 5.64579490, 13.32854081
9.26552751, 13.12440475, 25.60615160, 15.52820015, 9.44192777, 18.30778523, 5.74456265, 12.76812437
7.81024968, 10.99659038, 20.83326667, 10.80393447, 10.86738239, 18.63531594, 6.25499800, 10.19313494
6.29880941, 8.67035178, 18.33984733, 9.44457516, 13.81032223, 18.21194663, 5.76628130, 12.62240072
8.03118920, 8.81476035, 15.42967919, 7.46993976, 13.28344835, 18.14111353, 4.71168760, 12.49599936
8.41872912, 8.92748565, 17.54066703, 6.51536645, 11.06910114, 17.58124000, 5.41756403, 9.42072184
8.00468613, 9.33541643, 18.80691362, 7.47997326, 10.32472760, 20.12461180, 5.92874354, 11.82476215
8.60668345, 10.31018914, 19.86454127, 9.34077085, 13.90413608, 20.85245789, 5.90973773, 12.60357092
7.69415362, 10.10445446, 19.82738006, 8.19908531, 16.68232598, 16.58010856, 7.27495704, 10.56882207
6.59545298, 8.98470923, 17.84096410, 6.33442973, 13.80941708, 13.99374860, 7.32802838, 9.92849435
7.02673466, 8.16088231, 20.56027724, 8.01872808, 10.33440855, 15.31665760, 5.61916364, 9.51052049
6.42845238, 9.36082261, 22.42654677, 10.15504801, 11.18928058, 16.17559891, 5.02493781, 8.87834444
5.73149195, 10.20784012, 22.48277118, 10.10569147, 11.46516463, 19.89974874, 6.22093241, 10.42353107
6.86840593, 10.93846424, 24.23582060, 10.56172334, 10.40432602, 19.79962121, 9.33273808, 10.54158432
7.24568837, 11.25166654, 26.75957772, 12.35111331, 10.72147378, 16.24269066, 9.53414915, 10.74011173
6.14613700, 9.03880523, 24.83344519, 11.19039767, 11.44333867, 17.45637419, 7.72981242, 11.61034022
6.92098259, 9.44722181, 21.74798841, 9.84885780, 14.31607488, 21.56096009, 9.08432716, 11.95094139
8.16088231, 11.48803726, 21.49883718, 10.19681323, 14.03655941, 22.50666568, 9.77113095, 12.26784415
8.26438140, 10.13780055, 16.87898101, 8.26740588, 11.28494572, 17.41407477, 8.54692927, 12.04367054
7.55645419, 8.80908622, 16.43624045, 8.21888070, 13.56650287, 15.59406939, 7.71200363, 11.07474605
7.17983287, 9.01803748, 19.51217569, 10.14149890, 14.07480018, 17.09970760, 6.86840593, 10.00999500
6.83191042, 10.99659038, 23.54304568, 10.49880946, 13.76589990, 22.17938232, 9.11454881, 10.36219089
7.57297828, 11.01249291, 26.33201473, 9.97872737, 12.62141038, 21.11279233, 9.03188795, 9.23173873
8.12249962, 9.02219485, 20.69238991, 7.53325959, 12.75931033, 17.75105631, 5.32447180, 10.37906547
6.76941652, 7.68602628, 14.00446357, 6.37573525, 13.69032505, 20.42486230, 4.96990946, 10.75871740
6.10737259, 6.69328021, 15.66285415, 6.36788819, 11.00681607, 17.22860993, 4.88364618, 9.83361582
6.07247890, 8.52936105, 18.08106745, 7.75564311, 12.64021361, 16.34395913, 7.45486418, 9.74166310
6.16441400, 7.50999334, 17.01910691, 8.16088231, 13.07096018, 16.80029762, 8.57758707, 12.78573424
7.79262472, 5.70964097, 13.64093105, 7.10281634, 10.75174404, 16.40883908, 6.77310859, 12.86468033
7.95770067, 7.09929574, 15.17399091, 7.09224929, 12.40665144, 18.39157416, 6.51344763, 9.31128348
6.86476511, 10.00624805, 25.04096644, 9.02635031, 12.36830627, 17.86756839, 6.00000000, 9.21547611
7.48331477, 10.91902010, 27.31986457, 10.23840808, 11.87328935, 17.90600458, 6.59355746, 9.01110426
7.17460800, 9.81070844, 23.06458324, 9.74679434, 12.44387399, 18.66413673, 6.79705819, 9.83234458
5.92241505, 9.57209486, 19.27952282, 8.58195782, 11.93838348, 19.42163742, 5.35490429, 9.27227049
4.86055552, 10.07472084, 21.33131501, 9.13236005, 11.76435294, 21.97214145, 5.56551884, 8.48528137
5.79223618, 10.97838786, 26.93417903, 10.15627885, 10.94531863, 22.54329169, 5.40138871, 9.80306075
7.50666371, 12.55786606, 29.24551248, 12.35010121, 9.86661036, 21.18076958, 6.63890051, 11.11867798
7.69252884, 15.26515640, 31.60261065, 14.88707493, 12.01249350, 20.86863675, 8.81476035, 12.32781408
6.51344763, 14.68502639, 28.16868829, 13.31915913, 12.16449752, 17.82133553, 8.85578907, 10.88806686
6.01872079, 11.56287162, 22.83309002, 10.54751155, 11.26055061, 19.72371669, 8.40832920, 13.68393218
6.26697694, 11.87328935, 25.79147146, 10.26766770, 10.41873313, 22.90633100, 6.92820323, 14.46893223
6.11759757, 12.46695632, 29.23995554, 10.45825033, 7.90885580, 19.57294050, 5.29386437, 10.19068202
7.38241153, 11.63507628, 28.52498904, 10.89380558, 11.67047557, 14.21354987, 5.22015325, 9.46440701
7.64525997, 11.56935608, 28.54689125, 12.06958989, 13.72406645, 15.61569723, 5.49317759, 9.91967741
6.96239901, 13.55544171, 31.14321756, 13.45083641, 11.42803570, 18.98157001, 6.37377439, 9.92849435
6.05392435, 12.67576428, 30.90631004, 12.71318214, 11.15011211, 20.35006142, 6.67832314, 9.49473538
6.44980620, 9.76473246, 25.52743622, 10.42473021, 13.18711492, 21.32779876, 7.53491871, 11.93209956
6.84287951, 8.95125689, 20.11218536, 8.95265324, 12.85884909, 20.52011209, 7.11512474, 13.07860849
6.21691242, 7.64689479, 17.62952070, 8.93168517, 11.73349905, 20.26635142, 6.83008053, 11.83744060
7.04272674, 7.16763559, 17.28655547, 8.23407554, 12.51299325, 18.97564228, 7.01427117, 11.12879149
7.65832880, 7.57957782, 21.07605276, 7.03029160, 11.70790331, 18.75366631, 7.67789034, 9.51577637
6.93541635, 9.30725523, 23.33398809, 9.84885780, 10.49523701, 16.37910254, 7.85811682, 9.60728890
6.68393597, 9.92219734, 20.36479806, 9.74294617, 12.61942946, 12.61051149, 5.93085154, 11.41271221
7.32802838, 9.09257939, 19.37395158, 8.39940474, 13.48703081, 14.60736116, 5.21056619, 12.46896146
6.69888050, 9.98749218, 22.07090845, 9.95615388, 11.58878768, 14.14125171, 6.27694193, 10.95673309
6.29086640, 10.92016483, 25.74004662, 12.17784874, 11.00568035, 16.16400322, 6.88476579, 11.80254210
6.47108955, 10.79351657, 27.24334781, 12.66984609, 11.74201857, 19.72878608, 7.57132749, 14.44472222
7.09753478, 10.54988152, 23.24327860, 11.83321596, 12.06026534, 19.07878403, 7.19200945, 13.19753765
7.25603197, 11.47824028, 25.08734741, 12.63229987, 11.43459663, 15.89260834, 6.35806574, 11.06684237
5.98957428, 10.49047187, 25.31995261, 11.13777357, 9.26687650, 15.18057970, 7.22841615, 10.79814799
5.89491306, 8.25832913, 18.37865610, 7.72819513, 7.70551750, 15.65327442, 8.33216658, 12.15318888
6.22896460, 10.09083743, 23.76289124, 9.46440701, 13.10724990, 14.38141161, 7.95927132, 13.08529709
6.65018797, 9.41939489, 25.34413147, 9.34612219, 13.79764473, 16.64632091, 6.48652449, 12.56980509
8.34865259, 7.32461603, 17.51927510, 6.14206806, 12.03536456, 16.90783842, 6.87931683, 12.15524578
8.34715520, 8.72066511, 19.63097043, 6.65770231, 12.77301844, 17.94505503, 6.56315473, 10.58418632
7.58287544, 10.58772875, 22.22892260, 9.91715685, 12.34908904, 20.84706214, 7.71686465, 12.72890412
7.06399320, 10.30291221, 18.10179549, 9.76601249, 15.86111598, 20.69601411, 8.45281018, 17.56914910
6.76202632, 8.60087205, 18.65877810, 8.43059903, 17.61959137, 16.80699259, 8.81759604, 18.62055316
6.29682460, 9.08295106, 22.12408190, 9.11180553, 14.07035892, 12.82867881, 8.85296560, 15.14348045
6.84105255, 10.16980826, 21.72728699, 9.64235448, 14.10762205, 20.28669515, 10.03120132, 13.14534138
6.78785680, 10.83974169, 19.80214635, 9.63976141, 13.89694211, 22.37018105, 10.07223908, 13.27403480
5.87792480, 9.21683243, 16.42863354, 7.59275971, 12.05300792, 17.24963768, 6.39140047, 11.60926354
6.11350963, 5.69209979, 14.58509513, 5.56551884, 13.79220795, 14.58509513, 5.46580278, 12.06648250
6.93721846, 6.31862327, 17.04259370, 7.32290926, 12.73970172, 15.52981004, 6.36199654, 11.29048272
8.74499857, 11.22051692, 20.41384334, 9.83742853, 14.83913744, 18.35551688, 6.73052747, 10.30048543
8.25832913, 14.68843082, 23.63895091, 10.60306559, 13.24009063, 15.48386257, 6.22093241, 12.80527235
7.25086202, 12.98268077, 25.32587610, 9.41939489, 10.44030651, 14.94238937, 6.29880941, 15.19703919
8.00936951, 9.99749969, 20.85545492, 6.70820393, 11.64366781, 21.33893156, 7.12039325, 13.17288883
10.61720302, 10.67824892, 21.06834118, 9.25742945, 12.38951169, 18.83148959, 6.88294995, 12.53594831
10.33561803, 12.60357092, 25.62420730, 11.63615057, 20.20024752, 14.56794426, 6.17859207, 12.94217911
8.01716908, 11.72817121, 21.28144732, 9.50394655, 19.84061491, 17.83746058, 6.60681466, 11.81207010
8.19298480, 11.28826825, 23.78234639, 9.98373678, 13.51203168, 18.37729577, 6.10122938, 12.32781408
7.54320887, 13.05947932, 29.24337532, 10.63954886, 12.53395389, 20.48536063, 6.56505902, 14.11647973
9.37683315, 13.25141502, 26.99536997, 9.45780101, 11.96766477, 23.11709324, 7.55810823, 15.65966155
10.19313494, 13.92030890, 29.61038669, 18.13146436, 18.30163927, 24.02654782, 8.83034541, 15.91775738
10.94189198, 14.26621884, 27.80602453, 20.23178193, 18.52295873, 20.87103256, 11.03290533, 19.72371669
11.11980216, 12.77203977, 24.08059385, 15.38262006, 12.63131030, 16.18641406, 9.94359090, 23.74815782
11.36441815, 12.24744871, 27.65772948, 13.40708768, 13.84196518, 17.47212065, 7.99531113, 21.62406067
11.63507628, 13.37628499, 26.79365597, 11.86275685, 15.74166446, 21.38165101, 8.65303415, 19.17289754
9.77624672, 14.85345078, 27.80422630, 13.44804819, 15.54348738, 23.74657870, 10.35012077, 19.74018744
8.49264388, 13.47868688, 25.20615004, 12.33490981, 14.40486029, 26.08735326, 9.72239682, 18.40040760
6.91556216, 10.85587399, 23.43821666, 10.75871740, 13.78132795, 24.97348594, 9.42470159, 22.02952564
5.80086200, 9.93478737, 24.19865699, 11.02043556, 14.84587485, 18.68488694, 9.01110426, 22.51110837
6.35806574, 9.44457516, 24.48111517, 9.85139584, 12.84717868, 15.84534632, 6.03738354, 16.47194585
8.62409416, 10.36580918, 25.44700375, 10.15504801, 14.16333294, 19.94429743, 6.71006706, 16.47573974
8.74928569, 11.02383781, 22.95375786, 10.11311030, 17.92344833, 18.81355894, 7.37733014, 16.13691420
8.09783922, 10.34649699, 19.39523137, 8.92188321, 17.46281764, 20.39240055, 6.99642766, 13.71130920
7.61577311, 9.14193634, 19.77308777, 8.77638878, 14.72837398, 25.57049080, 6.33442973, 12.87827628
7.56637298, 10.41753330, 22.92433205, 10.60660172, 12.31462545, 21.95848355, 6.96419414, 12.45391505
9.45515732, 9.52234215, 20.06240265, 9.51840323, 14.00981799, 16.74738786, 7.02139587, 12.97593927
8.12249962, 6.42456224, 15.19045753, 7.19548470, 16.45676153, 16.67782960, 7.51332150, 11.14786975
7.00535509, 7.03384674, 18.75433283, 8.85437745, 15.93580873, 18.36300629, 8.41427359, 12.07890724
8.19451036, 9.97622173, 22.27835272, 8.60523097, 17.86896751, 18.82949813, 8.34415963, 12.93734903
7.40607858, 9.95866457, 20.23610634, 7.08872344, 17.23441325, 18.09212536, 7.88828245, 13.28815262
6.63701740, 10.54514106, 21.39626136, 10.35495051, 13.61065759, 18.47701275, 6.40312424, 12.08511481
7.53989390, 12.61546670, 24.44943762, 11.92790845, 15.14182948, 19.06567596, 6.25299928, 11.23387734
8.46315544, 11.55962802, 23.26316831, 9.87800587, 14.68757979, 22.06524416, 8.00624756, 13.69215104
6.89383783, 9.14056891, 20.19220146, 8.51616111, 13.65283853, 19.32485446, 8.33966426, 16.62528195
6.69701426, 9.54070228, 18.38001632, 8.33816527, 14.47929556, 14.95158854, 6.94082128, 14.86270500
7.87400787, 9.47364766, 16.32253044, 7.62889245, 12.94893818, 18.88981207, 5.07690851, 12.26376777
7.93095202, 8.13326503, 18.25924423, 7.97496081, 11.16691542, 20.85545492, 4.74605099, 11.31039345
7.41282672, 8.75785362, 20.89736826, 8.53814968, 14.49913791, 18.10869957, 5.50227226, 10.32109490
7.68765244, 9.10906142, 20.06987793, 7.97182539, 13.88164255, 14.55077318, 7.25086202, 11.76329036
7.72495955, 10.78424777, 21.39334009, 8.69482605, 11.08715473, 15.10380747, 7.69415362, 10.01998004
6.75462804, 10.97041476, 19.88089535, 8.22496201, 11.95616996, 16.73320053, 5.97285526, 10.16980826
6.82092369, 7.89461842, 16.64331698, 7.10985232, 12.54093298, 15.92089822, 5.94978991, 13.49629579
6.82641927, 7.93252797, 22.30470802, 9.04433524, 13.30883165, 14.08634090, 5.91396652, 14.75211849
7.82783495, 9.36482781, 21.99943181, 8.79488488, 13.60514609, 12.41269511, 6.35413251, 16.41417071
8.29457654, 10.85357084, 20.10348229, 7.30068490, 13.96513516, 29.10584134, 10.47377678, 16.79434429
7.15017482, 11.06119343, 19.31838503, 6.56505902, 14.19330828, 31.58836811, 11.54123044, 14.36488775
6.55934448, 9.96242942, 19.80719566, 7.51997340, 11.77709642, 17.97567801, 9.36215787, 15.99531181
6.80073525, 10.61131472, 23.92906183, 9.66953980, 10.96813567, 16.18177988, 9.17741794, 18.68890045
7.51332150, 12.85106999, 26.79738793, 11.19709784, 14.36749804, 17.63802710, 10.83743512, 15.61809848
7.54817859, 11.80889495, 21.67775357, 9.34077085, 13.81122732, 16.18795849, 9.92093746, 12.32375754
6.54217089, 6.87386354, 8.83176087, 4.63680925, 10.39831717, 17.51998858, 6.58407169, 13.61433068
6.47495174, 8.09629545, 13.82931669, 6.77864293, 11.03743630, 20.94695682, 6.14003257, 11.25277743
6.59924238, 8.50294067, 15.61569723, 7.79102047, 12.49499900, 18.94927439, 7.94984277, 10.93160555
5.94978991, 6.48266920, 12.80624847, 6.08481717, 12.64713406, 17.39899422, 7.48498497, 11.46952484
5.90338886, 6.99821406, 13.95528574, 6.62947962, 12.04885887, 20.37032155, 7.82304289, 11.25721991
6.10737259, 7.39256383, 19.84187491, 8.11942116, 13.86903025, 22.23566954, 8.92468487, 12.31462545
5.88217647, 7.18157364, 19.80656457, 8.04052237, 13.89424341, 18.46144631, 7.83581521, 15.60288435
5.50000000, 7.78460018, 15.82324240, 7.55314504, 11.83744060, 12.67379186, 6.18061486, 14.67310465
5.62583327, 8.00156235, 15.97576289, 7.89936706, 13.93466899, 18.68020343, 6.93000722, 9.51052049
6.32455532, 7.39087275, 14.43866337, 6.86112236, 12.44286944, 22.30807029, 7.73789377, 8.61974478
6.35216499, 7.84856675, 15.47821049, 7.25603197, 14.35531261, 18.67551873, 7.25430906, 11.17139204
5.56327242, 7.48331477, 14.74194695, 7.26291952, 15.07066687, 18.96773576, 7.96241169, 11.46625484
5.82237065, 7.48999332, 12.67773639, 6.66145630, 13.49166409, 20.09290920, 8.02651855, 10.23108010
6.61059755, 7.90885580, 14.53186155, 6.43234017, 13.59043781, 20.01249610, 8.24772696, 10.42592922
6.38357267, 9.03050386, 18.85537059, 7.45486418, 12.17990148, 19.68755952, 7.85334324, 11.46952484
6.88658115, 9.97371546, 20.98928298, 9.62548700, 12.18092772, 19.47049049, 8.66746791, 14.82818263
7.01427117, 9.51708989, 19.52626436, 10.95102735, 11.35121139, 22.84075305, 13.87263493, 14.94824404
8.44541296, 9.13372870, 19.43772106, 10.85702538, 8.76641318, 25.29278553, 15.63329780, 16.18177988
9.61119139, 10.05857843, 19.59464212, 10.88691876, 9.92975327, 25.34807685, 17.29450780, 19.67993902
7.91833316, 9.14740400, 19.79709575, 10.90756618, 12.89185790, 28.90804386, 21.88092777, 19.07092027
7.17112265, 11.76860230, 23.92174743, 11.68225150, 11.54014731, 28.77281703, 19.17028951, 15.57562198
7.13617545, 12.70432997, 23.06620905, 11.24499889, 12.11919964, 26.87098807, 16.92483382, 14.23112785
6.72309453, 9.33809402, 21.95051252, 10.35132842, 12.43885043, 26.02931040, 16.37986569, 16.50681677
8.35314312, 14.48792601, 31.70015773, 14.88035618, 12.54292629, 25.50294101, 9.37149935, 17.10263138
8.13941030, 15.43372930, 31.25579946, 14.32480366, 13.42572158, 22.38972979, 8.18840644, 13.11773609
7.14492827, 9.27227049, 18.57552153, 8.55131569, 12.61051149, 13.29755617, 8.40386816, 13.17099085
7.18505393, 6.75277721, 15.74325252, 8.51322501, 9.69793793, 11.65118020, 6.17859207, 12.99230542
5.98331012, 7.45318724, 19.12785926, 9.43265604, 9.44325156, 12.56980509, 5.95608932, 9.70953140
5.91396652, 7.11688134, 17.40258601, 9.21004886, 12.21269831, 16.12839112, 7.25430906, 9.33943253
6.59545298, 7.88828245, 15.62530000, 9.36482781, 12.86759496, 17.40904937, 6.35806574, 8.77353976
5.77494589, 6.63136487, 12.58669933, 7.26464039, 13.38936145, 15.02581113, 4.90153037, 12.16346990
4.77755167, 5.04232089, 13.71951165, 6.55553202, 15.39480432, 14.68247254, 6.24699928, 12.85301521
5.90550591, 7.91359590, 17.70804902, 8.53814968, 14.20915198, 12.70039369, 6.53834842, 11.90063024
6.32653144, 7.88194139, 18.75099997, 8.30963296, 10.30897667, 14.05346932, 5.44977064, 12.11197754
5.96028523, 7.07283536, 20.29778313, 7.59111323, 10.46900186, 17.07263893, 5.14295635, 11.19486489
6.59355746, 7.52495847, 20.68393096, 8.16241386, 12.65997630, 16.85749092, 5.99166087, 10.85011521
7.81024968, 7.26636085, 18.90965362, 8.48675439, 12.52397700, 19.50000000, 6.09302880, 12.30447073
7.31778655, 10.62896985, 22.39587016, 10.90985793, 14.01695402, 19.51537855, 5.55427763, 13.90683285
7.53325959, 11.19933034, 21.45868123, 10.00374930, 14.38228076, 18.59905912, 6.61248819, 12.31564046
7.30924073, 7.54320887, 14.66969666, 6.01664358, 12.37436867, 17.75387282, 7.07636913, 10.49523701
8.32316046, 6.48266920, 14.54647724, 6.08892437, 10.28348190, 17.65927518, 5.80947502, 11.52063366
9.59426912, 6.96957674, 14.84503284, 6.90470854, 9.94861799, 22.93468988, 7.27667506, 11.36111790
8.38301855, 7.41114026, 14.65776245, 8.19908531, 13.06904740, 21.39567713, 10.90183471, 12.31462545
9.13920128, 9.53808157, 15.69792980, 8.71062570, 17.01102584, 21.54762168, 12.91317157, 15.89732682
9.28304907, 9.96744702, 17.22135302, 9.03603896, 15.80664417, 25.49019419, 10.46422477, 14.01249442
7.75564311, 8.61539320, 15.46609194, 8.25984261, 11.19374826, 20.52559378, 6.28291334, 9.41010096
7.07460246, 8.88538125, 16.34242944, 7.50166648, 12.03640312, 18.79295081, 5.99374674, 9.87800587
7.51664819, 9.41142922, 17.95550055, 8.06225775, 10.87198234, 19.63670033, 7.06399320, 12.24846929
6.87931683, 8.50294067, 16.57633856, 7.11863751, 12.23315168, 17.00955614, 8.97914250, 12.32172877
6.77310859, 7.29040465, 15.90597372, 6.42066975, 16.26883524, 20.29100786, 8.67323469, 12.26376777
8.22040145, 7.95298686, 14.61249465, 6.43428318, 14.42133836, 21.25735167, 6.18061486, 13.71039751
8.14401621, 9.39414711, 16.90857770, 7.20936890, 11.92581234, 17.92065847, 6.56505902, 12.22395190
7.78138805, 10.85241909, 23.51860965, 9.88306633, 13.41174858, 16.76305461, 8.08857219, 13.82660479
8.02651855, 10.11187421, 24.62519035, 9.79668311, 17.05945486, 22.19515713, 7.92622230, 15.93267084
7.67951821, 8.89241250, 21.86378284, 8.25378701, 18.88584126, 27.06104211, 7.67951821, 12.31767023
8.00936951, 8.90786170, 20.94576329, 8.05760510, 15.74960317, 23.88147818, 6.23097103, 10.66770828
7.65016340, 9.19374788, 22.96736816, 8.37705199, 12.55687063, 17.44348016, 3.79473319, 11.48912529
6.20483682, 11.08377192, 26.26689932, 9.04018805, 12.43784547, 17.45780628, 5.09656747, 10.91787525
5.69649015, 10.29441596, 24.27292731, 8.50441062, 11.77391184, 15.84771277, 5.26782688, 12.37335848
5.20576603, 11.12654484, 28.38441474, 11.31260359, 13.29567599, 15.78923684, 5.02742479, 11.37101579
6.85930026, 12.25969005, 29.48219802, 11.69935896, 14.82228053, 18.88385554, 5.22494019, 11.52388823
7.00892288, 9.82852990, 20.56635602, 8.20060973, 12.13878083, 16.64707181, 4.29534632, 10.58418632
5.07198186, 9.85646996, 21.57834563, 8.06070717, 9.27766134, 18.55666996, 5.64800850, 7.16240183
5.41294744, 10.42952540, 21.66967928, 8.03118920, 10.63367293, 17.78904157, 6.36985086, 8.70057469
5.82451715, 9.29516003, 20.81285660, 9.60989074, 12.32984185, 16.23499307, 5.89491306, 9.69922677
6.34822810, 9.19646671, 25.59833979, 11.14562695, 11.93105192, 19.63670033, 5.30330086, 11.12542134
6.37573525, 10.91673028, 27.37745423, 11.23053872, 13.87353596, 16.71825350, 4.07430976, 11.10292754
5.73803102, 10.16489056, 24.50918195, 8.94706656, 13.91312330, 13.51018135, 4.09267639, 8.57758707
8.04363102, 9.67341718, 22.96246938, 7.53823587, 13.16814338, 13.29097438, 5.21296461, 10.88691876
9.52234215, 11.83638458, 26.77918968, 10.46900186, 14.67821515, 14.34747365, 6.01872079, 13.64093105
9.16924206, 14.83913744, 33.02044821, 13.85369987, 17.28366281, 18.68354891, 6.01872079, 12.32274320
9.31530998, 15.10380747, 32.26956771, 12.88506888, 16.56049516, 20.58154513, 6.51920241, 15.01998668
7.50166648, 11.77815775, 25.04495957, 8.86566410, 17.17920254, 18.56205808, 7.07990113, 16.45676153
4.87339717, 11.21940284, 25.13463746, 9.97496867, 16.33707440, 15.25532694, 6.31466547, 11.94047738
6.07659444, 14.88959368, 28.76716879, 12.64021361, 14.76058942, 22.72828634, 6.77126281, 13.14153720
7.58617163, 14.75550745, 28.82056557, 12.37133784, 15.22580047, 27.61159177, 8.28402076, 13.97766075
7.02673466, 12.61546670, 28.18909364, 11.40285052, 14.91140503, 22.00624911, 8.94147639, 9.64494686
5.77494589, 12.13878083, 25.45682620, 11.11418013, 14.98499249, 15.39399233, 8.74213933, 10.51070882
6.27694193, 9.78647025, 20.43281674, 9.41010096, 14.20035211, 15.19703919, 7.41619849, 12.09338662
6.78232998, 10.87658034, 23.00489078, 9.89823217, 14.14743793, 16.90266251, 7.22841615, 12.86079313
8.03274548, 12.14289916, 22.08619478, 9.50789146, 13.28344835, 18.59704278, 8.48675439, 15.57241150
7.92148976, 9.96368406, 13.89424341, 6.98212002, 15.51934277, 19.33714043, 9.66566087, 17.44706279
7.03384674, 7.70876125, 9.90580638, 5.96447818, 17.68827295, 19.48717527, 10.81087416, 18.17278185
7.58122681, 9.35414347, 18.38273647, 8.86284379, 15.79794290, 21.29553944, 14.14213562, 15.99921873
8.03274548, 9.62418828, 18.76965636, 9.39946807, 15.81771159, 24.51377164, 14.10584985, 13.14439044
8.06070717, 8.87271097, 14.16068501, 7.99687439, 16.59819267, 24.80473745, 10.28348190, 14.65605677
8.12096053, 8.69338829, 13.46662541, 7.58452372, 14.12444689, 21.27028444, 10.86738239, 16.14388429
7.62069551, 6.94982014, 11.75691286, 6.79889697, 15.15585695, 23.26961538, 11.36441815, 14.87447478
6.08070720, 6.09507998, 12.16655251, 5.86088730, 15.39074397, 22.27442480, 9.99874992, 13.31070997
5.30094331, 6.23498196, 11.40613870, 4.72228758, 14.46893223, 23.05970512, 9.07606743, 15.15338246
6.32455532, 6.85383105, 12.64614566, 5.38748550, 15.91932788, 23.05536814, 9.66566087, 17.48499357
8.23862853, 8.19298480, 13.88164255, 6.24499800, 17.67201177, 19.14875975, 9.01665126, 16.50227257
7.82144488, 8.78919792, 18.96509953, 7.55314504, 19.07681839, 23.02118589, 10.06479011, 16.36230424
5.90762220, 7.94197708, 19.06239754, 7.70227239, 17.70522522, 23.19321021, 12.92574949, 15.59887816
5.73585216, 8.69195030, 17.17410842, 7.10105626, 20.58275978, 22.22948492, 12.41370211, 16.95656215
7.45821695, 10.49761878, 20.55906126, 8.13787442, 20.45727255, 19.06239754, 10.31261364, 17.87875835
8.65447861, 10.24084957, 20.27313493, 9.15832954, 16.84710658, 16.02654049, 11.96035117, 16.27498080
8.76498716, 11.10292754, 24.51530134, 10.60306559, 18.91361943, 27.42033917, 13.41827113, 16.03199925
8.06380803, 12.17579566, 26.24214168, 12.37840862, 23.05970512, 36.08981851, 13.84015896, 13.40522286
6.77126281, 10.71564277, 21.70253441, 10.28105053, 27.16753577, 38.60699418, 14.08101559, 14.39965277
9.58123165, 10.16734970, 19.96121239, 7.00357052, 26.09837160, 36.23292701, 11.31481330, 18.87789713
10.98863049, 11.22497216, 23.04452213, 8.36510610, 22.57542912, 34.54526017, 13.96603022, 20.45605045
9.74294617, 10.45944549, 20.89916266, 7.48665479, 20.43098138, 31.68635353, 14.48188524, 18.99539418
8.31264098, 8.09783922, 16.78317610, 6.19879020, 19.65578795, 28.93397657, 11.56070932, 18.92683280
7.96711993, 9.99124617, 20.62886327, 8.77923687, 18.80824287, 29.49830504, 12.30650235, 18.45264209
7.84697394, 9.54070228, 19.23473421, 8.72926114, 20.95411654, 27.93966714, 11.36001761, 17.04699387
6.64454664, 6.70820393, 12.22292927, 5.55202666, 23.68966019, 29.02240514, 11.67368836, 18.85735931
7.50999334, 6.53452370, 7.70064932, 4.44409721, 22.84294202, 27.60525312, 11.10855526, 19.83620427
7.90727513, 5.38980519, 8.31264098, 4.57984716, 20.64642826, 28.33946012, 12.04574614, 19.73892094
6.89746330, 6.33245608, 8.71923162, 4.35315977, 20.01749235, 28.17534383, 11.57583690, 16.35007645
7.66648551, 9.30591210, 6.06630036, 3.82426464, 25.12319645, 24.46068274, 9.30859818, 13.52959719
8.60813569, 10.40913061, 9.25067565, 5.37354632, 23.74342014, 26.12565789, 10.61013666, 17.52712184
10.15258588, 12.62537128, 18.25171225, 8.29156198, 18.87855927, 25.92874852, 11.49238879, 17.39037090
11.13440614, 14.73431369, 23.48776277, 10.50833003, 25.16495579, 25.56169008, 14.62361105, 15.33134045
11.93733639, 17.85637141, 32.55610542, 13.88974442, 22.92596781, 28.86087317, 18.55599634, 17.85357107
10.83282050, 17.15954545, 31.12996948, 15.47174845, 14.52842042, 28.14693589, 17.10774678, 18.92947437
9.90832983, 11.24722188, 16.98528775, 11.96139624, 15.79952531, 30.76889663, 15.58925912, 19.58251771
8.96939240, 9.73909647, 17.50357106, 9.38083152, 15.21430248, 30.92167525, 15.24959016, 18.54319282
8.39791641, 16.23576299, 36.86326084, 17.00735135, 18.96048523, 26.21402296, 12.34503949, 15.64928113
10.72730162, 16.90340202, 41.19223228, 17.92554044, 19.92234926, 28.36811591, 14.46547614, 17.02718415
9.75192289, 12.84133949, 30.15418711, 12.27191917, 15.70907381, 27.97856322, 13.75863365, 17.10409308
8.36062199, 11.77497346, 23.86158000, 10.43431838, 15.34275073, 25.41800543, 10.87772954, 17.51356617
9.21004886, 13.26555691, 23.00434742, 12.06751839, 12.84328618, 20.91769586, 10.54751155, 16.83374587
9.10219754, 13.92749080, 25.23043797, 12.25255075, 12.41370211, 19.49166489, 9.81707696, 15.25450753
7.36715685, 11.39188308, 25.22201419, 11.37870819, 17.78904157, 26.85795971, 10.00999500, 19.21978148
7.52994024, 13.04128061, 29.05770122, 12.87633488, 17.66988964, 28.33901904, 11.44006119, 21.49883718
8.36510610, 12.49899996, 29.28736929, 12.75735082, 14.06147218, 24.86815232, 12.17784874, 19.77055892
8.86284379, 14.09964539, 25.50784193, 13.82660479, 15.23318745, 26.52593071, 17.42914226, 17.19520282
8.59360227, 14.25920755, 22.10147054, 12.25459098, 15.75357102, 26.61813292, 20.31009601, 18.27156260
7.29040465, 10.74127553, 21.22086238, 8.83883476, 13.58583821, 22.02214794, 16.02498050, 17.10190048
6.92278846, 11.62432794, 29.76911151, 12.40060482, 11.26831842, 19.22303306, 10.24573082, 12.86176504
7.37902433, 13.11964176, 32.57069235, 13.52312834, 14.04279175, 19.84691412, 7.70551750, 13.76408370
7.14142843, 12.55189229, 24.65005071, 10.10445446, 18.49729710, 25.34067876, 8.68331734, 15.35333840
6.90832831, 9.78391537, 18.36709013, 7.69252884, 18.52430835, 23.25886928, 8.19298480, 15.62209973
8.38450953, 11.91952180, 23.90188277, 10.86623210, 17.99235949, 23.87833746, 12.33288287, 15.12117720
9.01803748, 13.00769003, 24.56165711, 12.30040650, 17.70804902, 27.49909089, 17.54137965, 12.00624837
7.66811581, 9.99624930, 20.55237213, 9.66436754, 14.66714014, 23.37787415, 15.42643834, 11.62540322
6.66145630, 8.49117189, 15.60849128, 6.26099034, 14.22058367, 22.75192300, 12.52996409, 12.38345671
7.90885580, 8.96799866, 17.88015660, 6.60870638, 13.56742422, 25.65102337, 12.12126231, 13.52867325
10.22619186, 10.26888504, 20.90753453, 7.48331477, 12.83354978, 23.87519633, 10.94646062, 14.58252379
9.73909647, 10.71680923, 19.15332869, 6.78785680, 13.40895223, 23.29377599, 10.90527395, 11.87223652
9.24256458, 10.29563014, 21.25205872, 8.34116299, 12.06544653, 22.09751117, 10.27131929, 13.16054710
9.21004886, 9.96242942, 21.47614956, 8.98053451, 11.84694053, 21.63561878, 11.87855210, 14.02052068
8.56154192, 11.76329036, 23.25779439, 9.09532847, 14.21970464, 26.14670151, 11.72284095, 12.33490981
7.83741029, 10.12793167, 21.09620819, 8.42466617, 14.91559586, 22.87520492, 9.83488688, 10.07720199
8.05605362, 10.89954127, 22.38805485, 9.50920607, 13.44525939, 25.55337551, 8.44689292, 10.83397434
9.09257939, 14.62873884, 27.25481609, 11.43350340, 13.02017665, 31.71553247, 8.52203027, 15.05240845
7.18679344, 12.17476899, 22.43211983, 9.29247007, 13.21646700, 26.80624927, 10.36098451, 14.60479373
7.66322386, 8.26135582, 23.07866981, 9.53152664, 13.38656042, 20.86084850, 10.15135459, 12.79843740
7.64689479, 9.12688337, 23.22175704, 10.58064270, 12.34807677, 20.24536984, 7.72819513, 13.09198228
7.32120209, 11.44006119, 22.14215437, 11.10292754, 13.92569567, 17.27498191, 6.40897808, 12.06855418
7.78138805, 13.00961183, 27.27682166, 12.93251716, 14.46634024, 15.65566990, 5.85662019, 9.61769203
6.96060342, 12.45291131, 25.84569597, 13.49351696, 10.86623210, 19.11347692, 5.48634669, 10.75523129
7.22322643, 13.28815262, 27.84331158, 14.17744688, 13.43688952, 20.94874698, 5.64358042, 13.37348122
7.96868873, 15.06651917, 33.05412228, 14.56536989, 15.61649769, 19.21717981, 6.30079360, 16.89822476
7.34166194, 13.96960987, 31.70764892, 13.30131572, 13.99017512, 19.23148460, 6.14410286, 15.27907065
7.84697394, 12.12023102, 26.81231061, 11.28494572, 13.33416664, 17.89832394, 5.61025846, 11.80042372
9.76473246, 14.96161756, 23.35647662, 10.89839438, 15.18222645, 14.53014109, 6.29086640, 13.29285522
9.15150261, 15.87529527, 27.49954545, 12.86079313, 15.71702898, 15.38343265, 6.42845238, 14.17921013
8.24469526, 12.83744523, 30.04954243, 12.97593927, 17.19229479, 18.58224959, 7.95298686, 14.69183447
8.31564790, 11.60064653, 26.02018447, 10.64542155, 16.34854734, 18.99144544, 7.90569415, 12.07787233
8.11171992, 12.05197079, 24.60436953, 10.64659570, 14.92899863, 17.31473361, 6.89383783, 12.35414910
6.99285349, 13.27215130, 26.43104236, 13.66930869, 14.91391967, 18.11560101, 6.54980916, 12.68759236
7.92464510, 16.93517050, 29.94077487, 15.99843742, 13.57295104, 17.09385855, 6.89746330, 15.03745324
7.81824789, 18.58763030, 34.79331832, 15.80743496, 16.02888019, 19.35910638, 7.62725377, 17.89972067
6.96060342, 14.79949323, 33.63406012, 12.94604187, 16.09968944, 21.94994305, 6.12372436, 18.07622748
8.98053451, 12.63922466, 28.66792633, 12.04782138, 21.63272983, 23.19590481, 6.56696277, 21.33248696
11.03063915, 14.58080931, 27.54950090, 13.11106403, 24.31203406, 22.40256682, 7.62069551, 18.78163997
10.86278049, 14.46461199, 27.47771825, 11.93733639, 20.56088519, 18.17346967, 7.15716424, 14.54819576
8.71492972, 12.53295655, 25.06740912, 10.62544117, 17.67908369, 23.06349930, 10.44389774, 21.05231579
7.80064100, 13.76045057, 25.35547278, 11.58986626, 18.60779407, 30.07656895, 13.98034334, 22.41539649
9.27631392, 14.04368185, 25.06192331, 11.53039462, 17.54565473, 27.75968300, 13.29191484, 18.65073725
9.36883130, 15.16904743, 36.47362060, 14.80456011, 17.43129370, 22.81501698, 10.16366076, 13.68027777
8.37705199, 16.81814496, 40.54719472, 14.82818263, 19.03023909, 23.52179840, 8.66458308, 14.60992813
8.48822714, 14.70714112, 32.10451682, 11.10742995, 19.71991379, 22.00113633, 9.24662100, 18.46009209
8.13941030, 15.47336421, 33.78239186, 13.14534138, 23.68279967, 21.42603556, 8.19145897, 18.19684039
8.36510610, 14.66202578, 33.89063292, 11.64796119, 25.53037407, 21.14946808, 7.40776620, 17.66988964
7.86765531, 11.83215957, 29.07920219, 10.11805317, 24.93842417, 20.00124996, 9.09945053, 17.33565690
7.07460246, 14.34834485, 25.33673223, 10.59834893, 21.72901286, 20.53655278, 7.94355084, 15.14182948
10.35374328, 15.02830662, 27.54496324, 11.00454452, 22.48332716, 19.40489629, 6.20282194, 14.96495907
10.73894781, 13.71313239, 30.15045605, 11.30928822, 19.39716474, 14.34224529, 6.53834842, 15.98123900
8.87975225, 11.79618582, 24.73459116, 10.65833008, 13.23536928, 16.63730747, 6.33245608, 12.93638280
10.48332008, 9.20869155, 22.92324148, 11.82370500, 14.62019152, 18.24417715, 6.50768776, 11.09504394
13.44711865, 10.10692832, 22.90032751, 11.03630373, 17.25977984, 13.25801644, 6.23899030, 11.81101181
12.15833048, 13.13678043, 26.37328193, 9.71339282, 19.02629759, 15.74087037, 5.91607978, 11.11642928
8.05915628, 14.18097317, 30.97781464, 11.54556192, 17.32339459, 17.71016657, 5.74456265, 10.67824892
9.20326029, 12.75735082, 29.99041514, 12.49199744, 16.34089961, 16.84710658, 5.09656747, 12.71318214
8.59941858, 11.15795680, 28.15626041, 11.46625484, 13.47497681, 14.18361731, 6.01456565, 14.85765796
8.89522344, 10.83051245, 24.89929718, 10.44629121, 11.99583261, 14.04813155, 7.13792687, 14.04012108
9.48156105, 12.53594831, 23.91495348, 11.06119343, 14.64667198, 20.58093778, 6.66333250, 14.35966573
9.95113059, 14.47670543, 24.74267568, 12.62339099, 16.34931191, 25.53429067, 11.57367703, 17.33565690
9.55248659, 13.08338641, 22.15344217, 11.12879149, 18.73766261, 27.92758493, 12.10888104, 18.24212159
8.34415963, 11.13552873, 19.95682841, 10.47974236, 18.83414453, 24.12985702, 9.26552751, 20.35128989
8.89381808, 11.79088631, 18.03052966, 10.58890929, 16.27267649, 22.20529216, 9.65530942, 19.90979658
11.60818677, 13.14629225, 17.91089054, 10.47138959, 13.32103600, 24.83495520, 8.93028555, 22.73158595
11.66297561, 14.29772709, 23.15005400, 11.65439831, 11.15011211, 20.71714266, 7.94355084, 21.22321842
7.66974576, 12.30548658, 26.46696054, 12.15113163, 12.28820573, 18.55262785, 7.15541753, 14.21970464
6.99821406, 14.13329403, 36.38303176, 17.04992669, 16.80029762, 20.31501907, 8.02184517, 15.12283042
7.07813535, 14.52756002, 35.87547909, 16.45524233, 19.26136028, 20.40710661, 7.88352713, 14.91894768
6.64454664, 11.41380743, 27.85543035, 10.75174404, 18.46821594, 23.56374334, 7.84856675, 19.70596356
7.66485486, 11.22831243, 31.93156745, 11.02156976, 18.87259919, 21.08554007, 7.95770067, 20.01499438
7.46659226, 11.62432794, 34.37186349, 14.38923209, 16.42330661, 16.18255233, 6.78417276, 16.39359631
7.57957782, 17.71298958, 41.45419159, 20.11839954, 14.40052082, 15.95305613, 7.10633520, 16.34089961
8.25984261, 19.84061491, 44.77610970, 19.13112647, 14.94489880, 14.01249442, 6.36592491, 14.84419078
7.25430906, 18.27019431, 44.76270769, 15.05406922, 15.57321418, 14.12090649, 5.92874354, 14.65008532
5.82237065, 14.43779762, 38.06737448, 13.22119510, 16.36306817, 19.81539805, 7.04095164, 13.75590782
5.54075807, 18.47362985, 39.23423250, 17.60255663, 16.13923790, 19.80530232, 6.24099351, 11.14001795
7.34166194, 23.04614935, 46.44512892, 21.90034246, 15.67721276, 14.66969666, 6.60302961, 11.14562695
8.59069264, 18.36300629, 34.59118385, 16.82631867, 18.05408541, 18.47498309, 8.79630604, 13.40615530
8.13787442, 13.61249426, 21.37580408, 10.34891299, 18.65542816, 22.00397691, 8.37406711, 14.58338095
7.71038261, 13.26461458, 21.84948512, 8.79062000, 18.16246129, 20.63673908, 7.31778655, 14.42567156
8.22192192, 17.73203316, 35.76835193, 16.03667671, 20.43771024, 23.59555043, 9.98749218, 14.65264481
8.35763124, 18.74633297, 39.65507534, 17.34646938, 17.88085568, 23.20775732, 9.08570305, 13.55912977
8.90926484, 17.75950450, 37.57359445, 14.30034965, 15.08227436, 22.89377645, 5.44747648, 15.55313473
9.67987603, 16.56577798, 36.65924167, 14.32218559, 16.97129930, 25.17339866, 5.49317759, 16.97866308
7.98749022, 12.07166103, 25.22647419, 10.31624932, 15.03412784, 20.60946385, 6.43816744, 15.60208319
7.38410455, 14.33265502, 25.07688178, 10.62661752, 13.88074206, 21.02914644, 7.45486418, 15.39318031
8.88256720, 15.21676707, 27.11457173, 13.00288430, 14.89043317, 18.98617918, 7.85970737, 14.82396708
7.62889245, 10.97041476, 22.90032751, 10.09207610, 16.35771989, 19.70723218, 7.47830195, 13.88164255
8.06535802, 13.69488956, 29.70143094, 12.10784869, 18.09627033, 21.32955696, 8.20670458, 16.36917835
8.74356907, 14.30384564, 31.14201342, 13.45641111, 19.20091144, 19.92987707, 8.29005428, 17.64227876
7.84059947, 11.48477253, 23.12412160, 10.79235841, 17.02865232, 18.89775119, 7.50000000, 15.93502432
8.49411561, 11.62755348, 16.81740170, 9.95364255, 15.51289786, 14.90805152, 6.65770231, 13.12916601
8.53961357, 12.80820050, 21.95734501, 11.60387866, 18.25239710, 25.04845305, 5.83095189, 13.32947861
6.77679865, 12.74558747, 27.43765661, 12.94507628, 16.76678264, 26.06290467, 5.54526825, 15.34193599
7.22841615, 11.52714188, 27.58079042, 12.10061982, 14.11470864, 20.85905079, 6.29483916, 12.72202814
7.45821695, 11.02837250, 25.03347759, 11.46734494, 13.90413608, 22.45829468, 6.91375441, 11.21940284
6.25499800, 10.42712808, 22.64784758, 10.37786105, 13.79583270, 17.92414573, 6.21691242, 13.89244399
5.75325995, 8.95265324, 19.22433354, 9.18694726, 14.57737974, 15.61969910, 7.22495675, 13.74318013
7.03029160, 10.60542314, 24.40901473, 14.25219281, 15.54911573, 16.35542723, 7.94040301, 11.87644728
7.46324326, 15.28397854, 37.95424877, 18.05823912, 17.02277886, 18.48039502, 8.32766474, 14.94573518
7.66811581, 15.08724627, 36.18079601, 13.94542936, 17.20101741, 20.61855960, 7.65016340, 16.31333810
9.57992693, 17.74542194, 37.38983819, 13.78676902, 15.47901806, 21.78129932, 6.09097693, 12.60952021
10.06479011, 18.48918603, 40.18923985, 16.13459017, 16.53783541, 21.60786894, 6.24099351, 9.74422906
8.62554346, 12.49499900, 28.01562064, 12.99711506, 17.98958032, 26.50141506, 15.72577502, 18.06723554
8.99027252, 14.91643389, 32.60061349, 14.69608791, 21.52846952, 33.85520639, 22.03236256, 27.43765661
11.43568975, 14.58252379, 30.89983819, 14.17391971, 20.61977206, 31.91747170, 21.36937060, 27.01666153
10.86047881, 10.29684418, 25.09282766, 13.41827113, 18.88584126, 39.11681224, 17.12381383, 21.13764414
9.59035974, 11.58339329, 26.43718971, 12.55388386, 20.48841136, 39.94996871, 16.47346351, 20.49329159
10.01124368, 10.55343546, 15.44991909, 7.03917609, 19.66850274, 27.66812245, 15.89260834, 19.01512556
10.86738239, 7.76852624, 11.44989083, 5.72057689, 22.43379148, 23.75289456, 11.74840415, 23.95881884
9.92597602, 9.90706818, 14.32654878, 5.79655070, 24.07384473, 27.45496312, 10.28469737, 23.00054347
6.89021045, 9.55771939, 13.42758355, 6.08892437, 23.70812097, 29.33939331, 7.74596669, 14.57566465
9.40079784, 9.16105889, 13.61892066, 6.63324958, 23.53667351, 24.84401336, 6.84470598, 16.35924815
13.09198228, 13.37628499, 26.87145325, 10.08588122, 23.25618197, 30.42696173, 7.94355084, 18.21537812
11.38529754, 11.34460224, 24.78507615, 9.41939489, 21.88321274, 28.74152049, 7.80224327, 20.24475241
8.21583836, 6.94082128, 8.09783922, 5.68770604, 21.93513164, 19.96747355, 7.09753478, 17.14934401
7.86447710, 7.89303490, 14.67395652, 7.08519583, 20.37829728, 20.32916624, 7.00357052, 12.34098862
6.77126281, 9.02496537, 16.63730747, 8.42763312, 16.91892432, 19.60548393, 6.48845128, 15.51853730
7.48832425, 14.30646707, 21.36586062, 12.00416594, 19.24577876, 20.55845325, 6.49037749, 16.20648019
8.80766711, 14.95158854, 23.34255770, 12.72497544, 23.75131575, 20.54020448, 7.80224327, 14.47411483
10.15012315, 9.78519290, 17.63660965, 8.95963169, 23.35005353, 25.68121882, 7.52495847, 12.05715555
9.32737905, 9.94359090, 22.49055357, 9.89570614, 15.85086748, 26.49952830, 6.65018797, 11.48912529
7.05691151, 10.85241909, 21.88549748, 9.64753855, 15.09635718, 21.85520533, 8.09938269, 13.96065901
8.40089281, 10.89724736, 20.78100094, 9.16924206, 14.54991409, 18.90238080, 8.76070773, 15.54107461
8.38152731, 11.17474832, 26.85470164, 10.72263960, 13.32947861, 14.03923075, 6.50960828, 15.03246487
6.47302093, 10.35977799, 25.19275690, 9.95238665, 17.65219533, 18.06100772, 5.02493781, 10.80971785
8.04518490, 11.30265456, 26.82769092, 10.14765983, 18.27703477, 20.15502419, 7.91675439, 9.55510335
8.11480129, 12.21986088, 31.43962468, 13.42385936, 16.80104163, 19.58187938, 8.07929452, 9.21004886
6.15832770, 9.51052049, 25.10577623, 12.27701104, 18.44383366, 19.16050626, 6.28887907, 12.30853363
10.59363016, 12.61051149, 26.79598851, 12.91026723, 18.06723554, 19.08926400, 7.73304597, 14.24780685
10.62661752, 14.75296580, 32.08270562, 15.16492664, 13.31164903, 21.92943228, 7.44311763, 11.95721539
6.80991924, 11.91322794, 31.73405111, 14.75296580, 19.10628169, 21.09265275, 6.44398945, 14.10496367
6.51536645, 10.18945533, 27.11088342, 12.86565195, 20.81946205, 19.09908375, 6.38357267, 14.13064047
5.90127105, 8.78919792, 19.49358869, 8.70201126, 15.92168333, 17.82834821, 5.59240556, 11.19151464
7.01070610, 9.38616002, 23.55896857, 9.01110426, 16.39969512, 19.54993606, 5.62583327, 11.58986626
7.57297828, 10.13039979, 24.21776208, 9.96493853, 17.56132113, 19.89849241, 6.94622199, 12.09648709
7.23532999, 8.68763489, 19.57357913, 9.33541643, 15.52820015, 16.03355856, 6.62947962, 11.68760027
8.30361367, 8.15015337, 20.10348229, 8.77068982, 15.17893277, 16.26960356, 7.01427117, 11.06910114
9.13372870, 10.69696219, 24.15988411, 10.24084957, 15.89496776, 16.17714437, 7.20936890, 12.42074877
7.34336435, 11.14674840, 23.03258561, 9.59035974, 14.65179170, 14.65946793, 5.90762220, 12.90348790
6.86294397, 9.77752525, 20.36602563, 9.54201237, 17.16828471, 17.30390129, 6.86294397, 11.17586686
7.00713922, 8.97914250, 20.06551769, 10.08835963, 17.48427865, 15.93502432, 6.20080640, 9.92597602
7.16240183, 8.96102673, 20.35927307, 7.84219357, 14.21003167, 12.63328936, 4.95731782, 11.26277053
6.58596994, 9.07606743, 18.54184457, 6.91375441, 14.21970464, 14.18185460, 5.69649015, 11.06910114
4.83218377, 8.37854403, 18.27361486, 6.46529195, 17.00000000, 17.07849525, 7.32632241, 13.71586672
5.63249501, 7.17286554, 16.82854717, 5.83309523, 16.41569371, 19.35846068, 7.82623792, 15.34356543
6.71192968, 7.35187051, 15.87923172, 8.07155499, 14.71393897, 17.25326056, 6.50000000, 10.96585610
6.43622560, 8.34415963, 22.45328484, 8.87552815, 13.19659047, 15.02747484, 6.18465844, 12.45491871
5.39212389, 8.45576726, 22.40200884, 7.45654075, 11.74095396, 17.90670266, 5.48178803, 12.91413954
5.78575838, 8.95544527, 23.10952185, 9.36482781, 19.20807122, 19.36556222, 5.69649015, 10.62308806
6.57837366, 9.97872737, 25.08336102, 9.70695627, 19.25292186, 16.03745616, 6.20282194, 11.37541208
7.77978149, 10.87083253, 23.58654277, 7.93567892, 12.56483187, 14.42567156, 5.39675829, 12.02809212
8.85437745, 12.18092772, 26.22641798, 8.89241250, 14.66032060, 15.83192976, 7.02139587, 15.50241917
9.21411960, 10.34528878, 21.26734586, 8.28552955, 16.66358305, 19.42228102, 7.72495955, 17.92832954
8.12865302, 7.82623792, 15.59487095, 7.41956872, 13.62167391, 19.91921183, 6.44786786, 16.03433815
6.64830806, 8.14401621, 18.50608008, 7.66648551, 12.43181403, 15.86269208, 5.13809303, 13.62167391
6.62382065, 10.96585610, 22.95811403, 9.08845421, 12.69645620, 14.99833324, 4.87083155, 13.36787193
6.30476011, 11.14226189, 25.91331704, 8.79630604, 15.25286858, 15.71702898, 5.30565736, 12.12023102
6.38161422, 11.07361730, 27.56537683, 7.85334324, 16.28649747, 16.91892432, 5.90973773, 11.57043647
7.00713922, 11.21828864, 24.86563894, 8.37705199, 16.21881623, 20.13765130, 7.27151979, 12.71219887
6.35216499, 7.45654075, 15.55956298, 6.29483916, 16.08881599, 19.42614218, 6.89746330, 11.05780268
5.47950728, 9.71982510, 16.25346117, 6.22294143, 15.64368882, 19.78256808, 9.13783344, 11.84588536
7.02851336, 10.63837394, 15.45881625, 6.56315473, 14.62104647, 26.27879373, 9.58384057, 15.53463871
6.89202438, 7.82783495, 8.67899764, 4.75920161, 9.54070228, 23.72393306, 6.30872412, 14.60992813
6.73238442, 7.14317856, 13.53606294, 5.64136508, 10.29805807, 19.47498395, 5.92030405, 11.55205609
7.04450140, 7.32461603, 14.83071138, 6.06836057, 12.44688716, 19.35329429, 5.70087713, 9.45251289
5.25119034, 7.05691151, 11.02043556, 4.99749937, 12.16141439, 16.94623852, 6.58407169, 7.24913788
5.95608932, 6.20282194, 9.84123976, 4.53872229, 11.55313810, 21.29964788, 6.87204482, 8.19756061
6.99464081, 6.98927750, 13.92659327, 6.15629759, 13.71951165, 25.00000000, 7.52163546, 12.28617109
6.40702739, 8.17159715, 16.48939053, 7.81824789, 14.92229875, 27.06242783, 8.22496201, 10.74709263
6.17251974, 6.62570751, 11.90903019, 7.10281634, 16.07638019, 27.29056614, 8.09938269, 12.85884909
5.68110905, 5.38516481, 6.35413251, 4.67974358, 14.61591598, 26.31966945, 9.66048653, 19.16572461
6.25699608, 8.33066624, 13.16149688, 6.37965516, 18.21331930, 30.95480577, 14.27935573, 16.55294536
7.80704810, 9.54463200, 17.73414785, 10.20784012, 20.18786764, 28.68100417, 13.99285532, 12.61942946
9.15423399, 10.89265808, 16.44308365, 10.20539073, 14.92564906, 23.16192997, 9.26957388, 14.55678536
9.69278082, 11.89747872, 15.67801008, 7.37563557, 18.37457483, 23.91181716, 11.24944443, 14.34747365
10.47377678, 13.79764473, 18.12801699, 7.87559522, 22.29798197, 24.82891460, 13.05277748, 12.25255075
9.27766134, 14.54389906, 21.89120828, 11.19933034, 17.95271567, 26.88679974, 13.05373510, 9.61249187
7.75564311, 11.51737817, 18.39701063, 10.12669739, 14.69693846, 24.18315529, 12.64021361, 11.42037653
8.30060239, 10.35857133, 14.41613679, 7.50999334, 15.14100393, 21.02914644, 9.96744702, 13.40055969
7.18157364, 10.49285471, 18.72698588, 8.86707393, 15.01082942, 21.09324536, 7.28868987, 13.29285522
8.25378701, 11.05101805, 17.77005909, 8.78919792, 15.89968553, 20.90574084, 6.69141241, 12.14084017
9.30994092, 11.49347641, 12.84620567, 6.98927750, 14.30471950, 21.28497122, 6.71751442, 12.53395389
8.10863737, 9.94861799, 15.45558152, 6.62004532, 14.82312383, 19.66786719, 6.95701085, 12.68660711
7.60427511, 11.10742995, 25.02448801, 11.45971204, 16.95951061, 20.21633003, 6.56886596, 12.49299804
7.63871717, 10.84550598, 25.77595779, 12.10268565, 15.69315137, 26.66458325, 6.74536878, 13.14724306
7.58946638, 10.29441596, 25.28635996, 10.58772875, 17.74049041, 25.09681255, 9.66307405, 14.48792601
7.38410455, 13.76317551, 31.09461368, 13.32385079, 18.21537812, 17.17483624, 9.82089609, 16.73693520
8.59214758, 13.10534242, 28.13982942, 12.60753743, 16.25576821, 20.17919721, 7.69252884, 15.03662196
8.28703807, 9.45515732, 19.31838503, 9.78391537, 15.97889233, 23.83222608, 6.90651866, 13.77134707
7.14492827, 9.83615779, 23.85162468, 10.31261364, 15.70111461, 22.30358716, 5.91396652, 13.98838804
6.79337913, 12.12435565, 30.19850990, 12.00000000, 18.03746102, 20.24722203, 5.99583189, 13.61892066
6.43234017, 11.78028013, 28.98318478, 14.07391204, 19.70406050, 21.20259418, 6.38161422, 13.89694211
8.38749069, 11.94466408, 27.00925767, 13.86452307, 20.09104278, 22.35620719, 6.68019461, 14.34573107
8.89943818, 12.38749369, 26.20257621, 13.15009506, 18.81488772, 22.94558781, 6.46915760, 16.16632302
8.54400375, 12.94507628, 26.51084684, 12.71219887, 15.24467120, 22.01987738, 5.79439384, 18.61048092
7.57957782, 15.60528757, 29.19460567, 12.30751803, 14.01784577, 18.64738588, 5.24404424, 17.36519508
6.85200701, 16.18100739, 32.81501181, 15.55393841, 16.25576821, 15.27334279, 6.83556874, 11.97184196
6.41482658, 14.02052068, 31.14803365, 14.66799236, 16.51438767, 14.90972837, 7.65179717, 9.59557190
6.26697694, 14.05613745, 26.02354703, 11.60064653, 18.24212159, 18.34121043, 7.35527022, 10.04365471
7.50000000, 15.14513123, 28.39013913, 14.62446580, 18.54925875, 22.09298531, 10.05484958, 11.59956896
9.52365476, 15.90204389, 28.04460732, 14.80033783, 15.56598856, 22.55936613, 9.40877250, 15.88238017
9.91715685, 14.12887115, 24.10290439, 12.57278808, 16.53707955, 23.33559513, 6.75647837, 15.86978261
8.18229797, 9.85773808, 23.10627620, 11.75903908, 16.99705857, 23.34416415, 7.98592512, 11.52931047
7.11863751, 10.62308806, 25.81375602, 11.61679818, 18.41466807, 21.10213259, 9.18694726, 10.47138959
9.73909647, 12.42980289, 30.23780746, 13.34072712, 19.10759011, 22.32263425, 9.46572765, 12.08408044
10.01623682, 12.78182303, 30.38214936, 14.71478848, 16.58915308, 22.68865355, 7.99218368, 14.16421547
7.50666371, 11.48694912, 24.75075756, 12.37941840, 15.07232563, 20.05243127, 6.52686755, 13.44990706
6.14410286, 8.73641803, 15.87372042, 7.84219357, 13.65375406, 18.95257238, 6.46722506, 13.97944920
5.40832691, 10.00374930, 19.25616784, 8.52349693, 12.27395617, 20.74668648, 6.65770231, 15.44020725
7.53491871, 12.01977537, 25.59052559, 11.94780315, 9.37549999, 23.50957252, 7.96241169, 12.39858863
8.72353140, 13.95886815, 25.06691046, 12.18092772, 9.78647025, 24.59319011, 8.38450953, 9.20190198
9.31396801, 12.88700896, 20.63431608, 9.71596624, 15.47255635, 31.24899998, 7.24051103, 9.11592014
8.90926484, 9.26957388, 17.11943340, 9.38482818, 15.46690014, 30.72580349, 6.75647837, 11.23387734
6.70634028, 9.44589858, 20.85125895, 10.38989894, 11.85116028, 20.33285519, 6.21490145, 15.25450753
6.00832755, 8.73355598, 18.90238080, 8.32766474, 10.45825033, 17.75809674, 6.73795221, 16.21264938
5.62583327, 8.37406711, 15.48144050, 6.44398945, 11.84694053, 26.69316392, 8.46758525, 11.53147866
6.86112236, 9.56556323, 18.34121043, 8.23255732, 11.85537853, 27.70559510, 8.23407554, 9.45251289
8.44245225, 10.54039847, 17.00220574, 7.78138805, 10.35253592, 24.08786001, 7.59275971, 10.92359831
7.58452372, 9.44325156, 15.74563432, 6.51152824, 12.49799984, 26.73667893, 8.57321410, 11.72284095
8.94986033, 10.64659570, 15.38587014, 6.90651866, 12.11610498, 21.90205470, 7.85652595, 11.33137238
9.14193634, 10.81780939, 11.89222435, 6.23297682, 11.15347479, 20.25956564, 6.22093241, 10.29563014
6.66333250, 9.82471374, 13.01057262, 6.36788819, 10.06603199, 22.95539152, 6.66708332, 11.33357843
5.70087713, 9.57470626, 14.13329403, 5.93717104, 9.72496787, 22.68204135, 7.49333037, 9.26282894
6.98569968, 8.37555968, 14.23990871, 5.74238626, 10.81665383, 20.48719112, 7.58122681, 7.40270221
8.07465170, 8.52496334, 13.46384046, 5.84593876, 11.60710989, 17.41479256, 7.25947657, 13.04798835
7.94512429, 10.33924562, 19.99812491, 7.45989276, 15.56518551, 22.55659549, 9.33541643, 17.02204453
8.66025404, 13.41361249, 27.79208520, 10.52378259, 17.56203291, 28.52060659, 11.70469991, 18.01874024
10.23840808, 13.47126572, 27.58079042, 12.95376393, 20.13703057, 28.10515967, 14.85681662, 25.22597867
9.23850637, 11.55962802, 23.63313352, 12.20040983, 19.57741045, 24.85206229, 17.14788617, 23.29162940
7.04627561, 12.26172908, 22.11956148, 9.17741794, 16.36917835, 26.07201565, 15.91383046, 13.70218961
7.28697468, 12.32071427, 27.39388618, 10.35253592, 23.66379091, 30.43312340, 15.72577502, 13.79492660
8.86989290, 12.73479486, 31.04593371, 12.95569373, 26.35811071, 28.39322102, 15.16492664, 13.60790212
8.79772698, 12.71121552, 28.26305008, 12.15010288, 17.90809873, 24.32231486, 13.20795215, 15.31094380
7.44647568, 12.21167474, 25.02598649, 10.47019580, 11.62217708, 23.89403691, 12.00104162, 14.91727187
7.69090372, 12.62141038, 26.59511233, 10.41033141, 13.07191646, 22.43657728, 12.65503852, 13.60514609
6.75277721, 10.33561803, 24.38595907, 8.45281018, 11.75478626, 17.09824552, 11.70897092, 11.76116491
7.36715685, 7.92779919, 17.60894659, 6.42845238, 14.32654878, 17.21409306, 7.74919351, 12.89088825
7.91833316, 9.06090503, 20.76595772, 7.38918128, 15.81850183, 21.92031022, 9.97496867, 13.12440475
8.44245225, 10.36822068, 19.75094934, 7.12741187, 16.62753740, 29.15132930, 14.05080069, 12.36729558
8.00468613, 9.91967741, 14.51637007, 7.81664890, 17.61817244, 32.06204922, 13.40708768, 13.90863041
6.55743852, 8.76498716, 14.86270500, 8.42318230, 17.97915460, 22.85333674, 11.36991645, 12.66885946
7.54155156, 8.39642781, 12.38648457, 7.06399320, 17.74401307, 20.66579299, 10.47138959, 13.34353776
7.14492827, 9.10906142, 14.97664849, 8.00468613, 16.07326974, 23.13060743, 10.02122747, 12.94314490
6.44592895, 8.69626357, 16.22421030, 8.22800097, 13.76408370, 18.45331948, 9.79923466, 12.09855363
6.40507611, 8.79914769, 15.22251622, 7.48832425, 16.32099874, 17.90321200, 9.12277370, 13.68667235
6.83008053, 7.80864905, 12.70531385, 5.72494541, 17.37814720, 23.14519389, 9.12140340, 12.71416533
6.91556216, 6.27495020, 13.78132795, 6.93361378, 13.69580228, 23.47338919, 8.39493895, 12.77399703
7.44311763, 6.76572243, 14.45683229, 8.12249962, 10.32230594, 20.31071146, 7.95455844, 15.05157799
8.49117189, 6.82092369, 11.58986626, 7.05159556, 13.25330148, 22.88340010, 14.13064047, 15.22580047
8.41575903, 8.16241386, 11.22608569, 6.10941896, 15.25450753, 28.23782924, 21.53717716, 13.45548215
7.50666371, 8.22800097, 9.91967741, 5.06458290, 12.37133784, 27.48999818, 22.31311274, 12.94024729
6.86476511, 7.69415362, 10.98407939, 5.57000898, 13.49444330, 24.39825813, 18.46550839, 12.53495114
7.34506637, 8.82326470, 11.33137238, 5.83523778, 14.45683229, 22.27049618, 15.05489953, 13.57479282
7.68602628, 9.44986772, 9.00832948, 5.15751878, 13.22970143, 27.98437064, 22.72443619, 17.44992837
7.40270221, 8.13787442, 8.13019065, 4.73022198, 16.03823556, 29.63486123, 26.85051210, 16.11443452
6.32060124, 5.68550789, 9.38349615, 4.55521679, 15.04077791, 21.36878565, 19.67993902, 15.87765726
6.66333250, 6.44980620, 11.61356965, 5.02742479, 15.92403843, 22.32319422, 13.47961424, 14.93318452
7.14842640, 9.00555384, 12.99615328, 6.03531275, 20.48719112, 20.87642211, 12.22906374, 14.07924004
7.16589143, 9.49341877, 13.20984481, 6.35216499, 16.90118339, 20.72558805, 13.46476884, 14.86438697
8.13019065, 9.11729126, 17.04992669, 7.19027120, 11.98123533, 27.27132193, 13.88614417, 12.50099996
8.23862853, 8.51762878, 19.85698869, 8.34116299, 12.77008222, 23.12520270, 11.21048616, 16.13149094
7.17112265, 6.65394620, 16.23114290, 7.16065639, 13.51943046, 18.69291310, 11.02497166, 15.41346814
8.61684397, 6.35019685, 11.57043647, 5.10392006, 12.38547536, 18.68890045, 9.65271982, 10.72497086
8.66890997, 6.31664468, 9.41806774, 4.44128360, 10.79583253, 17.68049773, 6.70447612, 10.80856142
7.13091859, 5.40370243, 7.53989390, 3.95916658, 10.64072366, 18.84277050, 5.47722558, 11.06571281
9.23309266, 6.81175455, 8.62844134, 4.33012702, 12.13672114, 16.93295603, 5.51815186, 10.92931837
8.55131569, 7.92937576, 14.13240956, 6.57076860, 16.53934702, 17.93530039, 5.96028523, 10.69579357
6.63701740, 7.02851336, 17.35511452, 7.57462870, 17.26629665, 18.60846582, 5.11859356, 10.37545180
5.95818764, 6.56315473, 15.48386257, 7.33314394, 15.78765340, 18.71697091, 6.65582452, 10.33077925
6.63890051, 6.08687112, 12.30751803, 6.15223537, 14.27147505, 16.58086246, 6.87022561, 9.88306633
6.94442222, 8.27496224, 13.51203168, 5.35256948, 11.70256382, 14.07746426, 4.70637865, 9.30188153
5.17204022, 8.72926114, 14.72837398, 6.36788819, 11.02156976, 15.49193338, 4.63411264, 7.30753036
6.04979338, 7.29897253, 13.70218961, 5.93927605, 13.62350909, 16.27498080, 5.70745127, 11.73882447
6.48845128, 7.06753139, 12.29227400, 4.74868403, 14.41526968, 15.40779024, 5.77711000, 14.77413280
9.15696456, 7.19895826, 12.04470838, 4.04660351, 11.48259553, 16.52422464, 6.27096484, 14.00000000
9.63846461, 9.23985931, 16.10745169, 7.16763559, 12.94893818, 17.64440421, 6.94622199, 12.38143772
6.88476579, 9.73010791, 18.48242408, 7.92779919, 17.04332714, 18.55195407, 6.89565080, 10.10692832
6.80073525, 7.86765531, 16.62904086, 6.87386354, 16.33324830, 21.41378061, 6.49422821, 10.97838786
6.57647322, 7.84378735, 17.71933972, 8.71636392, 12.60059522, 23.84218950, 6.79337913, 12.17271539
6.42261629, 9.54986911, 17.36951352, 8.67899764, 10.82358536, 23.08570987, 7.66648551, 11.45098249
6.34034699, 9.62678555, 14.51809216, 6.91556216, 12.14907404, 19.76360291, 6.76941652, 9.13920128
6.17454452, 9.24391692, 15.92089822, 7.06753139, 13.81756129, 20.01374528, 5.38052042, 9.48551527
8.40386816, 10.14026627, 15.82482227, 7.62397534, 16.07638019, 21.68121307, 5.80086200, 11.59310140
9.58775260, 9.85520167, 16.35313426, 8.93588272, 16.41873929, 22.15851981, 6.06217783, 9.85266461
7.63871717, 6.98212002, 15.04742503, 8.62699252, 12.40765893, 20.54020448, 5.20096145, 8.32466216
6.32653144, 6.34625874, 12.95955246, 7.37054950, 11.07587468, 17.52854814, 6.39531078, 9.11043358
6.72495353, 7.79743548, 13.59503586, 7.09048658, 12.24540730, 19.62906009, 8.40684245, 8.63133825
5.50454358, 7.22495675, 11.96975355, 6.36396103, 13.07096018, 17.91577517, 8.31113711, 9.46572765
5.89491306, 6.27495020, 12.06233808, 6.80257304, 14.25570061, 15.73610498, 6.06217783, 10.35615759
6.63701740, 6.90108687, 12.35111331, 7.08695986, 12.01041215, 16.37604958, 5.16962281, 8.86002257
7.42293742, 7.41114026, 10.78656572, 6.95341643, 8.73927915, 13.39869397, 5.65464411, 9.84885780
8.13787442, 6.64266513, 9.39680797, 6.57647322, 12.60654592, 15.01332741, 6.81175455, 10.98066483
6.62382065, 6.90289794, 10.46661359, 6.47302093, 14.41700385, 16.99190984, 6.85930026, 8.79204186
6.14206806, 7.20069441, 11.12317401, 6.09097693, 11.93838348, 14.96495907, 5.25594901, 10.34166331
6.05598877, 6.47495174, 10.20416582, 5.63027530, 10.25914226, 15.95070531, 5.40601517, 11.59741350
6.27495020, 6.05185922, 9.32871910, 5.07444578, 9.88053642, 17.57057199, 6.08070720, 12.85106999
7.87718224, 5.55877684, 7.02851336, 4.64758002, 13.49166409, 16.04836440, 6.36003145, 13.65558494
8.93588272, 5.73803102, 8.18382551, 4.49444101, 15.88552801, 21.93798076, 6.18869938, 13.29943608
8.38450953, 6.58786764, 11.77921899, 4.80624594, 15.59807680, 26.97220792, 8.75642621, 16.23961206
6.79889697, 9.06366372, 17.74189956, 7.30410843, 15.62929941, 27.57943074, 11.32364782, 16.51741505
5.92241505, 9.74551179, 21.40619069, 7.99374756, 13.35102992, 28.45083479, 12.84815162, 13.75227254
6.19475585, 8.79204186, 19.32420762, 6.85018248, 10.01124368, 24.98549579, 14.23903087, 11.34129622
7.69090372, 9.14056891, 17.44491330, 7.37224525, 12.99422949, 23.44194958, 14.84503284, 11.84905059
7.43303437, 8.61539320, 17.04699387, 9.29784921, 17.37598918, 27.33953182, 12.74166394, 11.95930600
7.35696948, 7.72495955, 18.88650312, 10.88691876, 17.76654159, 30.38420642, 10.12052370, 11.27164584
8.28703807, 8.49264388, 22.36459255, 10.13410085, 15.03246487, 32.03006400, 15.92639319, 13.52590108
10.28469737, 11.01249291, 24.68096432, 10.48093507, 12.98364356, 32.40717513, 20.77618829, 14.86606875
9.55379506, 10.47377678, 23.23628628, 10.83166654, 12.86176504, 31.05921763, 21.84032967, 14.49913791
7.73142936, 10.85357084, 27.86171208, 10.81896483, 14.45683229, 26.95041744, 17.78271633, 14.63386483
8.31715095, 17.81642501, 39.01410002, 15.66365219, 14.73261688, 27.93161291, 14.18273598, 14.54991409
10.71914176, 24.93090452, 52.65951956, 20.03247364, 16.17714437, 26.48631722, 17.75387282, 14.03834036
15.36554587, 24.88071542, 61.91001534, 20.27313493, 15.69554077, 23.97446558, 17.76865217, 15.83745560
13.34166406, 24.73711786, 58.76712516, 18.41874046, 12.06233808, 25.26558925, 15.05739021, 16.41721657
9.40079784, 28.81492669, 56.12820147, 19.76297042, 14.87027236, 24.30226327, 16.30107358, 13.52312834
10.94874422, 31.66425429, 56.37707868, 22.20472923, 15.19786169, 29.27669722, 18.27566688, 11.37431317
10.72613630, 27.02175050, 49.76494750, 19.75537901, 13.93735986, 30.09900331, 16.85155779, 11.26388033
9.85520167, 16.77050983, 35.99201300, 13.91761474, 12.46495086, 24.00781123, 13.33322917, 14.17568341
9.58775260, 15.87214541, 28.56527612, 12.79941405, 10.40072113, 17.81151313, 9.73652916, 14.03566885
8.89100669, 15.11952380, 26.84539067, 11.85221498, 14.24517462, 17.55704987, 8.65736681, 10.37665649
8.16853720, 13.72042273, 24.97598847, 11.65010730, 14.54905495, 22.02214794, 8.59069264, 9.57078889
8.12557690, 12.77301844, 25.17190895, 11.32254388, 15.98514936, 20.23548863, 7.57132749, 10.97838786
7.10809398, 10.45585960, 20.79483109, 7.55810823, 17.25326056, 20.30086205, 5.96866819, 11.41161689
6.85018248, 8.67755726, 17.83115251, 6.29086640, 13.73954148, 21.92601195, 7.36715685, 9.74037987
7.53325959, 8.45428885, 18.98420396, 9.13236005, 10.92016483, 21.71232369, 8.03118920, 9.25202680
8.38152731, 9.77241014, 18.80093083, 9.44192777, 13.42758355, 20.06863224, 6.85018248, 9.84504952
6.81725751, 9.36349294, 16.77721669, 6.08481717, 14.85345078, 16.97792685, 5.94558660, 10.28469737
5.72931060, 9.96619285, 20.67002661, 7.37054950, 13.46105494, 18.62793601, 5.71620503, 12.02913131
5.65685425, 9.77368917, 19.78699068, 8.12865302, 11.93628921, 19.39845355, 7.17983287, 12.08614910
5.82451715, 9.76985159, 23.99218623, 9.54332227, 10.48451239, 19.50064102, 7.31266025, 10.30048543
5.93506529, 11.74521179, 34.47571609, 11.36991645, 10.35857133, 19.77561630, 6.76387463, 13.19943181
5.70306935, 9.94484791, 30.05287008, 9.76729236, 9.00416570, 21.62926259, 6.78969808, 13.70766209
6.76572243, 7.31095069, 17.98124022, 9.05952537, 10.86047881, 28.93700054, 6.71192968, 15.19786169
6.95880737, 7.78299428, 18.06031561, 9.20054346, 13.33510405, 27.05780848, 10.60070752, 18.04231138
9.01110426, 8.86143329, 15.85244461, 8.20670458, 11.59956896, 21.34478859, 17.20755648, 16.44080290
19.45700388, 8.89943818, 18.03953991, 9.60858991, 11.63077813, 31.62514822, 23.33398809, 13.50277749
18.36164481, 8.83176087, 24.03799076, 12.84425942, 15.24959016, 31.46585451, 21.50988145, 14.65264481
7.10809398, 8.90365094, 23.93219589, 11.93524193, 17.78271633, 23.49361615, 11.74734012, 16.13459017
10.63249735, 9.55379506, 23.98436991, 11.36661779, 20.27683407, 24.23169412, 7.16240183, 16.10201851
11.91847306, 9.46968848, 23.23305834, 10.86853256, 19.00592013, 25.69970817, 7.35187051, 13.67570839
9.65789832, 8.45872331, 18.90700928, 8.64725390, 14.93987952, 24.28013591, 7.21456859, 10.89839438
9.39414711, 9.13236005, 20.78400828, 10.39951922, 14.34137371, 19.85510010, 8.50294067, 11.58123482
10.02247474, 10.23840808, 23.23843799, 10.93617849, 14.48533741, 18.01804651, 7.38579718, 11.22051692
10.62191132, 10.22252415, 23.61408478, 12.20553153, 13.01153335, 20.88300745, 5.61916364, 14.78935428
12.70826503, 9.08019824, 20.01312070, 11.05667219, 13.18995830, 21.91289575, 6.10737259, 15.44020725
17.64440421, 10.36580918, 18.52160900, 9.25337776, 13.73408169, 24.05982128, 8.12865302, 14.99833324
17.35655496, 13.15579720, 25.87904558, 12.67379186, 14.42740448, 24.26417112, 8.44393273, 15.38180744