24.92639164, 25.55728859, 10.85011521, 14.53100134, 49.44567726, 25.15700698, 15.06651917, 32.21102296
27.13208433, 22.27274119, 7.25603197, 16.01405633, 50.96003336, 19.74082065, 16.57709263, 37.26794870
22.65391798, 18.82219435, 6.20483682, 15.45719897, 44.86173202, 21.59629598, 15.81534065, 33.46415993
27.81950754, 19.11216890, 5.50454358, 12.38547536, 39.74009311, 25.90704537, 14.62190138, 39.55407691
26.48631722, 16.41036258, 6.81175455, 12.22395190, 39.17588544, 28.82316776, 14.25570061, 42.62862888
22.13255521, 19.64306493, 7.57792848, 15.66125793, 42.47587551, 36.66196940, 16.77125517, 34.09765388
27.22957950, 23.79548276, 7.74596669, 17.67130442, 53.48668058, 39.26926279, 16.96098464, 38.01118257
27.02683851, 21.15419580, 7.92306759, 16.21419132, 46.16167241, 30.56427653, 18.02290210, 40.25357127
24.63534047, 17.11432149, 7.57132749, 16.44156319, 45.04442252, 25.56413503, 21.10035545, 37.80773730
21.58587501, 17.33637794, 7.28354309, 16.31180554, 49.95247742, 25.19573377, 21.06181379, 36.63161203
17.06385068, 16.01171446, 7.56306816, 13.49536958, 48.04294953, 22.28227996, 17.24166465, 28.83053936
14.78512766, 11.28716085, 6.74351540, 12.00728945, 45.92357782, 20.45666151, 15.57241150, 27.97230773
15.27743434, 9.61119139, 5.17204022, 10.94417653, 28.05396585, 18.61652492, 16.45068388, 30.22581678
13.89874095, 10.22007828, 5.02991054, 12.77399703, 28.83790908, 18.68956928, 14.57909462, 33.62625462
13.29097438, 10.02746229, 5.61471282, 14.36575790, 34.65725032, 26.24880950, 17.86127095, 34.09912022
14.53702170, 12.77693234, 8.02496106, 13.59227722, 40.94477989, 31.03143567, 22.37576814, 26.70486847
12.47297078, 10.73894781, 7.48331477, 13.01729619, 44.88513117, 27.07951255, 19.44286502, 22.86536682
11.08715473, 11.25610945, 4.79322438, 11.27608088, 44.83943577, 23.51276249, 15.06983742, 21.63388546
10.50833003, 12.96919427, 4.67439836, 10.32472760, 42.25724790, 22.94286381, 19.86076534, 19.45186366
12.02601347, 11.48803726, 4.17432629, 10.27740240, 38.08674310, 22.36906346, 20.00812335, 22.25645974
13.02209661, 11.26388033, 3.99061399, 9.66953980, 34.17638073, 21.41494805, 19.77308777, 23.45154579
9.04295306, 10.43551628, 3.58817502, 9.25202680, 24.42334948, 19.47947638, 18.04231138, 16.49014857
7.43303437, 9.60858991, 3.67083097, 10.73196161, 27.55766681, 21.13172970, 14.03210604, 14.15273825
8.36062199, 9.82598596, 3.99061399, 12.42376754, 33.12023551, 25.31254630, 17.59829537, 15.54750784
8.93168517, 11.38310151, 3.84707681, 11.85748709, 31.83747792, 31.93078452, 21.73073860, 15.35333840
10.90871211, 11.28051417, 4.70903387, 12.59166391, 45.73674671, 32.99924242, 18.66614583, 19.92297669
10.90183471, 9.19238816, 5.05470078, 12.91123542, 45.95786113, 28.73978079, 20.30209349, 22.61912907
12.83452375, 10.66653646, 4.44971909, 10.83858847, 35.60301953, 26.64863974, 20.87761960, 23.17272103
15.18551942, 11.85010548, 3.79802580, 9.16105889, 36.13689251, 25.14855861, 13.35290231, 25.95332349
14.15273825, 12.11713663, 3.21714159, 9.31262584, 33.25582656, 24.34799786, 14.87699566, 23.89560629
12.19221063, 12.58073925, 2.95381110, 10.38147388, 31.08094271, 23.50265942, 20.05305463, 16.90044378
11.08489964, 10.95559218, 3.66060104, 12.97497592, 32.07452260, 28.06421209, 25.45879023, 16.29953987
9.17333091, 9.56033472, 3.82753184, 13.54621718, 35.53484206, 30.74898372, 24.47243347, 16.95508773
9.29784921, 8.15015337, 3.18982758, 12.26784415, 33.84191188, 28.47542800, 21.11871208, 16.33095221
11.89222435, 8.80340843, 3.27871926, 12.02497401, 33.26259160, 27.89354764, 19.43772106, 18.10800928
10.94988584, 9.53414915, 4.32723930, 12.31767023, 30.79569775, 28.73456107, 21.07723891, 22.22554836
8.51616111, 6.56886596, 4.54422711, 10.19068202, 31.18372973, 29.32149382, 25.42439773, 21.74223999
9.98749218, 9.22225569, 5.75108685, 11.53906409, 31.77735042, 27.12885917, 23.30504237, 19.09057359
12.53395389, 14.42047156, 6.63136487, 13.54713992, 36.19668493, 25.05743403, 21.61423142, 20.44749373
11.94466408, 12.96051696, 5.79655070, 12.20450736, 42.52646235, 31.30175714, 22.77718156, 17.29017062
11.22385852, 7.17635005, 5.49090157, 11.65547082, 39.36146593, 37.67326638, 19.81224369, 19.15724406
9.81325634, 6.56505902, 4.87339717, 10.36580918, 36.82594194, 34.47209016, 16.43471935, 23.66379091
7.65016340, 6.34428877, 5.87154154, 12.06958989, 34.15223272, 40.35065055, 15.18057970, 21.86721290
6.36199654, 4.93203812, 7.52828002, 13.40708768, 35.16034698, 43.66663486, 17.77427917, 15.42724862
7.51664819, 4.61519230, 6.43234017, 12.38446608, 39.14045222, 46.10504311, 24.72347063, 18.12456896
8.06845710, 3.69459064, 3.92428337, 10.60424443, 37.31454140, 45.77799690, 26.82070096, 21.48255106
6.88294995, 4.28952212, 4.30406784, 10.34528878, 40.04747183, 35.64687925, 26.57160138, 15.52175892
8.07619960, 5.15751878, 4.98748434, 11.39188308, 36.14484749, 36.58790784, 25.54016445, 15.75515789
8.03430146, 5.41525623, 4.27492690, 12.16244219, 35.65704699, 35.93118423, 20.08668713, 17.98471573
9.43927963, 7.86288751, 3.97177542, 12.09855363, 38.79722928, 34.54634568, 18.18722079, 15.69474434
10.02496883, 9.94359090, 4.20416460, 11.74946807, 36.07526854, 37.21928264, 19.35716921, 15.30931089
8.27647268, 9.86027383, 4.66904701, 10.52971984, 38.25833243, 34.14637609, 20.21694834, 14.85092590
7.63708059, 7.50999334, 5.20336430, 10.25914226, 34.70590728, 28.63738815, 21.37346486, 14.20123234
9.11454881, 6.17454452, 4.87596144, 12.55388386, 34.56913363, 27.41076431, 23.34041559, 15.95932329
9.39414711, 7.45318724, 5.32212364, 12.19733577, 41.60558857, 35.68157788, 23.39070328, 17.76372709
8.63423419, 6.09302880, 4.93457192, 12.31056457, 42.34442112, 41.74685617, 26.04659287, 15.71384740
9.72239682, 5.18893053, 5.76411311, 13.83112432, 39.56639989, 35.55383242, 24.43614127, 13.06809091
10.43551628, 9.87674035, 7.42798761, 13.27685957, 38.08510207, 29.39345165, 19.89660775, 18.28045404
10.35615759, 10.61013666, 5.80732296, 10.14889157, 33.47125633, 27.62516968, 18.76965636, 17.09970760
10.44748774, 8.92188321, 4.66904701, 9.44986772, 32.22266283, 30.71359634, 14.12710161, 13.42385936
9.00138878, 9.39015442, 5.31507291, 11.86486410, 38.05850759, 33.78091177, 11.49565135, 14.19242756
7.75886590, 7.34166194, 4.74868403, 11.43787568, 38.98397107, 35.56613558, 10.89495296, 15.80189862
9.25742945, 5.71182983, 4.58530261, 9.75192289, 33.87292429, 33.86369738, 11.05101805, 21.56443832
9.14877041, 5.52494344, 4.59075157, 13.38749416, 30.60024510, 29.28182030, 13.21457529, 20.26265037
8.97635784, 4.24558594, 4.44690904, 15.78527795, 33.83045965, 31.73523279, 14.43173586, 17.30028901
9.01803748, 4.44971909, 4.86826458, 13.84286820, 39.62921902, 36.19254067, 13.72042273, 17.47283606
7.53325959, 4.58802790, 4.37607130, 10.90642013, 36.99898647, 36.43075624, 15.39886359, 15.81138830
6.97137002, 5.22015325, 3.57770876, 11.33468129, 32.67720918, 34.23740644, 15.12530991, 16.54161419
7.15541753, 4.93457192, 3.51069794, 12.17682225, 36.07942627, 28.53725635, 14.18185460, 16.31870093
7.19895826, 3.00000000, 3.13049517, 11.03063915, 36.01353912, 31.54996038, 13.53329228, 13.42106553
6.16035713, 2.98328678, 3.15039680, 11.53581380, 37.24781873, 36.89003931, 12.69350227, 13.98660073
6.58027355, 3.07001629, 3.41686991, 11.27053681, 38.28805297, 36.58209945, 14.57995199, 17.70381315
7.35527022, 2.68793601, 3.22877686, 11.87644728, 37.51333096, 31.93626465, 15.14348045, 19.78825409
6.44786786, 3.13049517, 3.52491135, 12.60852886, 31.95152579, 30.24524756, 17.51713447, 20.63431608
6.14003257, 3.51425668, 3.74499666, 10.17840852, 27.01388532, 33.43613315, 15.59246613, 18.74966666
5.86301970, 3.00832179, 3.42052628, 9.40478602, 31.79190148, 28.11005158, 13.07191646, 14.20123234
5.88430115, 2.79284801, 3.97177542, 11.55746512, 29.32831396, 25.71818423, 14.26797112, 13.29849616
6.16644144, 3.92746738, 4.12916456, 11.74308307, 33.71275723, 27.01990007, 12.84912448, 14.95994652
5.85021367, 3.71819849, 3.66401419, 11.36111790, 35.53343496, 26.41921649, 11.72923697, 14.93820605
6.25699608, 2.74772633, 3.27490458, 11.52171862, 31.97577208, 30.03914113, 10.15012315, 13.07096018
6.37769551, 2.60768096, 2.82842712, 9.71339282, 35.52569493, 30.70016287, 14.43520003, 14.02765126
6.51152824, 2.73861279, 3.12649964, 9.72625313, 34.18698583, 25.65394706, 17.20755648, 15.71941475
6.21288983, 3.05368630, 3.73831513, 11.88170863, 33.04844928, 29.12430257, 13.84196518, 14.54647724
6.00624675, 3.43147199, 3.93382765, 13.77769937, 39.15737478, 32.12942577, 13.41733953, 17.25253605
7.76691702, 5.06705042, 4.00312378, 14.16421547, 34.43871368, 29.05598045, 15.04991694, 18.07691899
8.67755726, 5.34555890, 4.51940262, 14.52067492, 24.28837170, 31.88612551, 17.98332561, 20.77017092
8.43208159, 4.35028735, 5.58121850, 15.36391877, 36.24293035, 34.53078337, 18.51215817, 23.20506410
9.25877962, 4.13521463, 7.04982269, 16.11133142, 40.38873605, 30.60800549, 15.53463871, 19.78509540
11.87013058, 4.30987239, 7.89145107, 16.99338106, 39.13246734, 33.86000591, 16.49469612, 18.77431756
11.83321596, 4.65564174, 7.30239687, 15.35008143, 39.43412228, 35.10448689, 13.73499181, 24.21931048
8.64291617, 4.51940262, 6.27694193, 14.07835218, 43.33589736, 37.71173557, 13.27874241, 25.87421496
6.82825014, 3.78813938, 5.12591455, 13.67936402, 46.53842498, 35.02142202, 13.00576795, 23.76920276
7.57132749, 3.40220517, 4.12916456, 13.75499909, 43.91639785, 26.39791658, 10.98749289, 20.04058382
6.62759383, 3.09434969, 3.70472671, 14.60736116, 39.49303736, 25.47204350, 14.35270009, 16.33248297
5.97285526, 2.96226265, 4.26907484, 13.44525939, 36.39471115, 25.50490149, 14.75804865, 16.63805878
7.12390342, 3.02076149, 4.19523539, 11.15683647, 35.72569104, 29.11829322, 12.46695632, 16.38902072
8.00156235, 3.20546408, 3.43511281, 10.53090689, 32.49846150, 28.61031283, 13.11201739, 16.62603380
7.22495675, 3.15039680, 3.60208273, 11.15683647, 30.76442751, 27.12563363, 11.83744060, 17.31473361
6.35216499, 2.37697286, 3.22877686, 9.46308618, 27.51181564, 27.87471973, 13.76862375, 16.99338106
6.83556874, 2.81513765, 6.26099034, 9.55379506, 38.60990805, 27.51590449, 16.66958308, 18.80159568
7.75241898, 3.78153408, 9.24121204, 11.89222435, 42.27558397, 39.56545210, 23.63524910, 23.90188277
8.31715095, 3.73162163, 7.91043614, 10.51070882, 34.27572027, 41.55508392, 26.27546384, 22.21542257
8.51028789, 3.36526373, 4.52493094, 9.43927963, 33.71201566, 30.88122407, 33.39985030, 22.72553630
7.82304289, 3.81116780, 4.82182538, 13.63634848, 30.32490725, 34.92706687, 36.47636221, 23.76604721
7.01961537, 4.03112887, 4.89897949, 14.41093335, 35.89045834, 37.25452993, 28.80711718, 19.16050626
7.76852624, 3.82753184, 3.95600809, 11.49347641, 37.43227217, 35.09487142, 22.23848016, 15.45800763
8.23559348, 3.66742416, 4.01870626, 11.67368836, 37.87182330, 33.05109680, 16.18795849, 17.61178583
7.30924073, 3.73831513, 4.83476990, 10.34891299, 38.63353466, 30.74898372, 18.24143635, 19.28730152
7.28868987, 9.83488688, 21.21732782, 11.21605991, 33.49104358, 32.87400189, 21.79047957, 14.84334868
8.30361367, 10.80162025, 26.24452324, 13.78858223, 29.87264635, 37.90613407, 23.36129277, 19.01644026
8.19451036, 7.43807771, 19.42614218, 12.33490981, 32.38170780, 38.74370917, 22.67432469, 19.82674961
9.17741794, 6.72123501, 11.74521179, 11.97706141, 36.26223931, 35.32704347, 24.42437307, 17.71228387
9.89317947, 5.30565736, 4.22196637, 10.27861858, 28.13449840, 31.10908228, 25.62859731, 22.70847859
9.27092228, 4.58257569, 3.06594194, 8.84731598, 28.06866580, 28.16957579, 25.96102849, 20.06302569
8.42318230, 4.46934000, 6.36199654, 11.69615321, 36.98986348, 33.77610102, 27.81141852, 16.62753740
8.14708537, 3.72491611, 6.90289794, 11.02270384, 37.48332963, 33.65932263, 27.82400043, 16.54539211
6.81175455, 3.25192251, 5.52946652, 10.68644001, 35.40197735, 29.45632360, 24.36185543, 15.26269963
5.55202666, 3.61247837, 5.10636857, 11.98749348, 34.46447446, 26.86912727, 18.77764628, 15.67960459
7.60591875, 5.44288526, 3.85681216, 10.48212765, 36.05239243, 29.63486123, 17.23296260, 13.57018791
9.22225569, 6.57647322, 3.68442669, 10.17472358, 35.82631714, 31.58915953, 23.84323804, 14.64325783
9.66307405, 6.18667924, 3.62284419, 10.53209381, 34.81486751, 30.70993325, 24.51836047, 15.82008217
8.71923162, 5.06211418, 3.51425668, 10.06106356, 40.87297396, 30.03040126, 20.39301351, 17.30679057
8.77211491, 4.95731782, 3.73162163, 10.53921249, 42.01130800, 33.96100705, 21.94082952, 16.85526624
8.75785362, 4.52769257, 3.35037311, 10.24573082, 35.31076323, 35.85387008, 23.57541092, 13.90863041
7.26291952, 3.00000000, 2.94533530, 9.76729236, 29.35941076, 26.82116701, 21.88663976, 13.97050464
9.13236005, 3.12649964, 3.37638860, 10.72846681, 34.66410247, 25.37518473, 18.19203122, 15.43534904
9.04018805, 6.15629759, 3.67083097, 10.65950280, 37.15474398, 29.40408135, 19.69390769, 17.14059509
7.40945342, 7.15017482, 5.27019924, 11.43022309, 40.25978142, 29.74432719, 18.37253385, 15.99843742
7.08519583, 5.14538628, 5.30094331, 11.38200334, 37.37579431, 34.23412041, 21.70368632, 13.64093105
6.40702739, 5.48634669, 4.77231600, 11.16131713, 30.38667471, 41.86137838, 26.64770159, 13.19374852
5.98748695, 5.63471383, 4.45813863, 9.89317947, 35.62618419, 40.83013593, 22.63017897, 11.50869237
7.22149569, 3.97492138, 3.54259792, 7.11863751, 33.62551115, 32.20675395, 21.58992821, 12.42477364
7.22495675, 3.39484904, 3.99687378, 8.57612966, 28.67795320, 24.67387282, 20.16432493, 14.66287830
6.57267069, 3.41686991, 4.16233108, 9.70953140, 28.99353376, 22.69911893, 16.33783951, 14.33003838
6.30079360, 2.80624304, 3.80131556, 10.48332008, 28.18377193, 32.12981481, 18.45060975, 19.45507646
5.58345771, 5.47494292, 4.35603030, 9.56164212, 39.08228499, 31.89631640, 20.98273099, 21.57660770
7.29383301, 5.80732296, 9.13236005, 8.23711114, 41.04875150, 23.91965719, 20.89617190, 19.69454239
7.94827025, 5.39444158, 13.24386650, 9.82598596, 28.42402153, 27.28461105, 21.24911763, 16.66508326
6.66708332, 6.20282194, 15.82956095, 12.18708333, 33.47797784, 28.50657819, 21.11338438, 11.95303309
5.67670679, 4.91172068, 13.47497681, 12.62438117, 36.49863011, 27.04718100, 19.58507084, 12.77888884
5.73585216, 4.45813863, 9.13646540, 10.22496944, 28.39894364, 27.41578013, 18.49594550, 11.54664453
6.35806574, 4.74078053, 9.86154146, 7.95612971, 22.89923580, 36.60942502, 15.65566990, 12.08097678
7.42630460, 4.40454311, 8.96660471, 7.91201618, 30.09775739, 36.71239573, 24.65664211, 17.86127095
7.67300463, 3.94017766, 6.04565960, 8.42169817, 36.85546093, 37.50233326, 33.44398302, 18.45331948
7.60756203, 4.70637865, 4.54147553, 9.10631649, 36.60464451, 41.03839665, 28.06866580, 16.11831257
6.85565460, 4.46094160, 5.62138773, 10.60306559, 36.39574151, 34.55032561, 17.52498217, 16.05147968
5.80947502, 4.41588043, 8.05450185, 11.27164584, 31.77813714, 28.39278077, 18.65341792, 14.27322668
6.04979338, 5.79007772, 14.06147218, 12.01873537, 24.59979675, 26.15673909, 18.32211778, 12.91413954
7.06045324, 7.19895826, 17.69887002, 13.45269490, 27.33724565, 40.47437461, 15.81850183, 12.54491929
7.46324326, 8.03430146, 17.40689519, 14.87867602, 36.89173349, 43.89191269, 17.29523056, 14.34224529
8.84590301, 6.68206555, 13.05469264, 13.70218961, 46.31144567, 43.59386425, 17.54636715, 15.91068823
11.21271600, 12.39152936, 12.91317157, 10.74011173, 45.76215685, 40.99542657, 20.43342849, 16.43091598
10.68058987, 14.04457191, 13.78042089, 11.49021323, 42.44437536, 29.17661735, 24.17229819, 14.94657151
8.19451036, 10.40913061, 11.64259421, 12.74950979, 43.93546404, 34.73003023, 23.82645588, 15.07066687
5.86941224, 8.80056816, 13.66382084, 10.48212765, 40.07898452, 30.13677156, 17.22353042, 16.52119850
6.45561771, 6.33245608, 13.30977085, 7.81824789, 34.37550000, 16.46207763, 7.16065639, 19.25357110
7.07283536, 5.53624421, 10.16612020, 9.37949892, 36.16386318, 23.73762836, 10.79120012, 21.23322868
6.71751442, 5.87367006, 9.79157801, 9.35414347, 37.85432604, 24.91134280, 12.23417345, 18.90634814
7.54817859, 6.29483916, 16.42482877, 12.64515718, 35.69768900, 20.94576329, 10.02372186, 16.13768881
8.88819442, 6.13392207, 15.04243996, 13.32197433, 34.60960849, 18.96707674, 10.38869578, 19.01446818
8.99166281, 4.87596144, 10.32472760, 10.45346832, 40.04653543, 26.21974447, 11.59633563, 21.18194986
6.42261629, 3.47850543, 11.58015544, 10.63837394, 40.18955088, 30.88608101, 11.44006119, 15.65007987
5.85234996, 3.39116499, 9.00832948, 10.15135459, 32.44649442, 27.19191056, 10.19926468, 11.50869237
6.64078309, 3.75166630, 7.13967786, 10.00124992, 32.53882297, 29.63654838, 12.94024729, 13.10629620
12.26070960, 3.96862697, 5.20096145, 8.70344759, 34.32928779, 32.72728220, 14.78935428, 17.59758506
12.14392852, 3.70809924, 5.60580057, 8.49264388, 32.70741506, 26.52640194, 15.01082942, 16.50984555
4.91172068, 2.60288302, 5.38516481, 9.76089135, 29.00775758, 26.45184304, 17.76372709, 13.69671493
4.74605099, 2.56417628, 3.43147199, 10.44150372, 27.59393049, 29.58335681, 15.61009289, 16.63805878
5.59464029, 3.12249900, 3.44238290, 10.60660172, 29.75483154, 25.44209111, 12.52098239, 15.25860413
4.97744915, 2.76586334, 3.07814879, 7.61905506, 35.83782918, 22.00568108, 15.10132445, 13.66565037
4.86055552, 2.46475151, 2.92403830, 7.91201618, 33.53207420, 23.38482414, 17.31184566, 13.26932553
5.21775814, 2.69258240, 3.58817502, 9.07744457, 22.14384790, 27.91594526, 18.41941910, 13.54067945
5.17204022, 2.62678511, 3.54964787, 8.33666600, 22.62631212, 25.01149736, 20.56817931, 14.54389906
5.65243310, 2.42899156, 3.32791226, 9.70180396, 32.93554311, 18.63732813, 19.58507084, 14.85849925
6.03324125, 2.45967478, 3.35782668, 10.59363016, 35.78512261, 21.87921388, 14.29772709, 14.12444689
5.27019924, 2.48495473, 3.80788655, 11.11193053, 29.33342803, 22.09468262, 14.82228053, 12.50699804
5.95399026, 2.65047166, 4.10487515, 10.02372186, 26.28878088, 22.64011926, 22.01022490, 13.70218961
6.12780548, 2.66458252, 4.00936404, 7.87400787, 29.39770399, 32.33960420, 26.66833328, 13.29755617
5.51815186, 2.33452351, 3.54612465, 8.35314312, 30.02332427, 38.18769435, 25.47351566, 13.88974442
5.50908341, 2.39269722, 3.00832179, 8.86002257, 26.91003530, 39.68437980, 25.20515820, 14.07568826
5.93717104, 2.85482048, 4.33877863, 8.86566410, 33.83489323, 38.21158201, 25.47351566, 10.62426468
6.85930026, 2.79284801, 4.38178046, 8.67179336, 39.04548629, 30.33521056, 20.49939023, 11.00795167
5.88217647, 2.62202212, 3.29393382, 8.86989290, 31.42729705, 25.62713406, 21.16364808, 12.66491216
5.45664732, 3.02076149, 3.74833296, 8.87271097, 29.59856415, 28.04416160, 21.83002519, 12.89573573
6.24299608, 2.77037904, 3.38747694, 7.59440584, 34.03637760, 26.71422842, 16.49924241, 12.02601347
6.83373983, 2.40831892, 2.96226265, 7.26636085, 28.97973430, 24.53976365, 12.94314490, 13.84377116
6.51152824, 2.65988722, 3.42417873, 8.68043778, 23.72920142, 28.19973404, 14.32480366, 15.08641773
5.90127105, 3.23264598, 3.96547601, 8.22344210, 28.50482415, 35.89603042, 25.93549691, 12.34402690
7.47161295, 3.61939221, 5.45893763, 8.65158945, 35.15074679, 40.21504694, 35.28951686, 14.06947049
7.15541753, 3.36526373, 5.31977443, 10.13163363, 31.20817201, 47.65605943, 35.60126402, 14.68247254
7.57957782, 3.37638860, 4.07124060, 11.99166377, 27.23095665, 46.77873448, 33.98970432, 14.65946793
8.30210817, 3.66401419, 4.80104155, 10.94988584, 34.82456030, 35.59669929, 31.06404674, 17.26702059
7.38410455, 3.95600809, 6.68954408, 9.02496537, 34.98535408, 32.88920796, 24.96597685, 16.25884375
7.36036684, 3.36154726, 5.80301646, 8.57321410, 29.73760246, 31.93704745, 22.05277760, 14.91727187
6.45561771, 2.44948974, 3.10241841, 7.76047679, 26.54806961, 31.78954231, 21.42428529, 16.63430191
7.09224929, 3.40587727, 7.03562364, 10.57591604, 30.89296036, 42.46734039, 24.69058525, 17.92902674
9.52102936, 7.00178549, 14.61762635, 13.41081653, 40.25667646, 43.39873270, 25.99711522, 19.44286502
9.08982948, 7.26291952, 15.89339485, 13.57939616, 39.34399573, 33.74240655, 24.16143622, 17.75598491
7.20763484, 5.16236380, 13.24009063, 12.03017041, 34.29394990, 28.30724289, 20.12833823, 16.08570794
7.45318724, 4.96990946, 13.43968006, 12.64515718, 31.77774378, 30.47457957, 20.31809538, 18.52160900
8.20518129, 4.50277692, 11.17586686, 11.82581921, 37.10828748, 30.07324392, 21.21732782, 16.51968523
8.87411967, 4.76445170, 11.15347479, 11.98332174, 43.47671791, 33.04958396, 18.62122445, 20.24104740
8.35164654, 9.54725091, 24.25025773, 13.51203168, 41.91181218, 38.09429091, 17.80659990, 22.02214794
8.59796488, 13.67753633, 34.44016550, 19.28665342, 46.52391858, 39.89987469, 20.05367797, 22.50166660
12.25051019, 14.12533185, 33.61101010, 19.18397769, 47.80742620, 35.85909926, 23.92958420, 29.67995957
12.59464172, 10.95216874, 22.90851370, 13.69671493, 45.04359000, 25.97787520, 21.02498514, 28.34960317
9.37416663, 6.41092817, 15.20115127, 14.24254191, 39.27308238, 31.28537997, 17.71440092, 23.50265942
7.66485486, 4.91426495, 13.91671657, 16.76305461, 33.19977410, 27.95532150, 16.18023486, 22.35844360
8.53229160, 4.77755167, 8.79204186, 17.37886648, 34.23265984, 18.97366596, 12.68562178, 23.20506410
8.47201275, 4.39602093, 7.43639698, 17.08215443, 33.72350812, 17.74542194, 10.46780779, 21.89577585
6.42066975, 3.38008876, 5.21536192, 16.46739202, 31.55709112, 11.83321596, 6.70074623, 16.84488053
6.60113627, 2.57875939, 3.96862697, 15.17563837, 38.88122940, 21.43711734, 8.38152731, 19.59081417
7.14142843, 2.91547595, 4.36463057, 16.22189878, 41.11295416, 28.57052677, 11.33468129, 19.51730002
6.62570751, 3.02902625, 4.24558594, 14.55420901, 28.98577237, 26.18587405, 9.70438045, 17.23586377
5.79870675, 2.66926956, 3.58468967, 12.14598699, 30.05869259, 22.03973684, 6.78969808, 18.48918603
7.31095069, 2.72946881, 3.39852909, 11.51737817, 35.33659576, 21.97839849, 9.16105889, 18.81887351
8.42021377, 2.57875939, 3.36154726, 10.22985826, 35.68052690, 21.45518585, 11.19151464, 18.49797286
7.89303490, 2.65518361, 3.58817502, 11.26942767, 37.67923832, 19.29378138, 10.81434233, 17.53353929
6.39140047, 2.99583044, 3.74165739, 12.43784547, 37.25151004, 18.92220917, 7.50166648, 15.35089574
5.19133894, 3.16227766, 3.76164857, 13.57479282, 36.77839039, 17.69604476, 5.77494589, 14.58509513
6.06011551, 3.48926926, 4.42153819, 15.13274595, 35.07385066, 17.53995439, 7.94512429, 16.05537293
6.59166140, 3.35037311, 4.64488966, 14.21794641, 30.77417749, 20.31871059, 8.49117189, 16.28496239
5.95189046, 3.30151480, 4.30116263, 12.71809734, 38.88701583, 19.41713161, 6.51920241, 14.99749979
5.13565965, 3.26726185, 3.99061399, 11.58015544, 38.05456609, 16.71227094, 7.41114026, 14.11027994
5.04975247, 2.91118533, 4.02181551, 10.34528878, 26.91793083, 17.30895722, 8.95125689, 13.63726512
5.09411425, 2.77488739, 3.72155881, 9.48815050, 35.91065302, 18.70294095, 8.91767907, 15.01415998
5.75977430, 2.75680975, 3.42782730, 10.26523258, 37.29979893, 21.50988145, 7.63053078, 17.34286597
5.52720544, 3.21714159, 4.45252737, 13.65375406, 36.80692870, 20.40281843, 6.09507998, 16.54085850
6.27495020, 3.44601219, 4.86826458, 14.10673598, 41.08740683, 20.20581599, 7.08343137, 15.92325344
8.10246876, 3.70135110, 6.12984502, 12.00312459, 45.87428474, 21.21143559, 8.72066511, 21.57660770
8.15628592, 5.38980519, 11.44006119, 12.64713406, 39.55881697, 19.98624527, 10.16243081, 23.66431913
6.24899992, 5.41294744, 12.64713406, 12.04678380, 25.94657974, 16.57407614, 8.97078592, 21.72153310
6.36985086, 4.00936404, 9.09670270, 11.32364782, 30.15335802, 14.98082107, 6.89383783, 21.20672063
6.61626783, 3.73496988, 8.33966426, 9.93352908, 35.25088651, 17.84166472, 6.59545298, 18.09281625
5.63914887, 3.42782730, 9.68891119, 10.04614354, 33.55592347, 18.39904889, 7.27839268, 17.35007205
6.06423944, 3.58817502, 9.24121204, 10.69228694, 33.07491497, 21.05469069, 12.22190656, 16.89822476
5.50454358, 4.25734659, 9.93101203, 9.64624279, 35.96456589, 20.74909637, 12.69940944, 18.15695459
7.75886590, 4.30406784, 9.61899163, 11.78982612, 32.94768581, 16.30260715, 11.14450537, 21.67025611
12.64911064, 6.34231819, 9.05814551, 11.61787416, 30.21175268, 23.37359621, 13.13011805, 23.52126697
15.42643834, 7.90569415, 11.43678276, 11.24944443, 35.91204533, 24.71386251, 14.47152376, 21.89977169
13.18332280, 7.38241153, 16.18409713, 11.84377474, 38.24395377, 21.70714168, 13.69032505, 19.07943920
8.27949274, 8.17771362, 18.75633226, 11.69187752, 40.67431622, 19.84565444, 10.65246450, 19.36104336
8.38301855, 7.15017482, 13.24764130, 10.81203034, 40.82278775, 14.98499249, 8.66746791, 18.17897137
9.38749168, 3.46770818, 3.64005494, 10.93046202, 37.35639169, 15.21594558, 6.97137002, 16.78094157
7.61084752, 2.74772633, 3.11448230, 12.04574614, 36.35656749, 13.56742422, 6.71192968, 21.44761059
5.95818764, 2.47991935, 3.10241841, 11.40175425, 36.91849130, 11.98749348, 7.11336770, 21.36995555
6.72867000, 2.73404462, 3.42782730, 10.73545528, 41.14486602, 14.55592663, 5.97285526, 18.42349044
7.43975806, 3.08220700, 3.46049129, 10.48093507, 36.88021150, 15.40535621, 6.44398945, 17.89622865
7.69252884, 2.82400425, 3.14245127, 9.83869910, 25.07189662, 16.48635800, 8.37257428, 19.52946492
6.31466547, 2.53475837, 2.77938842, 9.30725523, 21.29847412, 19.19960937, 9.55510335, 20.70084539
4.89642727, 2.40312297, 2.65988722, 10.15135459, 35.27959750, 17.56559136, 8.03741252, 16.57860066
6.01248701, 2.68793601, 2.50998008, 10.19436119, 39.95059449, 13.86632612, 7.23360215, 15.85481000
6.52686755, 2.77938842, 3.19765539, 11.46516463, 36.14380998, 15.98436736, 8.31113711, 18.16177304
6.60492241, 2.59326050, 3.40587727, 12.09855363, 36.46779401, 16.26345597, 7.04627561, 22.18107301
6.60492241, 2.74317334, 3.53553391, 11.84166373, 32.06789672, 14.66884454, 7.11336770, 20.30394050
5.89491306, 2.58360214, 3.72827038, 12.11094546, 28.02944880, 15.22580047, 7.67300463, 17.02351315
5.15024271, 2.68328157, 3.49284984, 12.07890724, 33.28212734, 15.86584382, 6.52111954, 16.69281282
6.10941896, 2.72946881, 3.09030743, 10.70513895, 34.62730137, 13.74954545, 5.77711000, 17.30462366
5.57225269, 2.62202212, 2.68328157, 9.16105889, 34.77570991, 12.96919427, 5.99166087, 17.28655547
5.00249938, 2.64575131, 2.77037904, 9.34879671, 31.81980515, 14.29335510, 5.22733202, 15.43210938
5.89067059, 2.45458754, 2.54950976, 8.89100669, 26.79598851, 11.60603291, 5.16962281, 17.72216127
5.75543222, 2.59807621, 2.95381110, 11.80254210, 29.37856361, 12.48098554, 5.67009700, 15.79002850
4.88108594, 2.48495473, 3.23651047, 12.96051696, 34.89734947, 12.15935854, 7.20763484, 12.03328717
4.40454311, 2.26936114, 2.93257566, 11.48694912, 41.08923217, 12.65207493, 7.06399320, 12.23417345
5.55877684, 2.56904652, 2.97069016, 12.59662653, 42.92435206, 20.18477149, 6.76572243, 13.52127953
9.41275730, 3.57421320, 4.07124060, 12.68266534, 38.87222659, 32.97840202, 14.09964539, 15.90518783
9.40345681, 4.41871022, 10.14396372, 13.31540461, 39.77404933, 32.60023006, 14.81131324, 16.75559608
8.48822714, 4.57438520, 15.87214541, 13.93825671, 36.92289263, 24.41720705, 10.30048543, 18.59166480
8.64002315, 3.88908730, 14.32742126, 12.99230542, 36.28808344, 23.74184070, 11.64152052, 18.69291310
11.33357843, 3.49284984, 9.36082261, 11.60387866, 37.75678747, 24.09979253, 15.49354704, 17.55277756
13.36693682, 3.18198052, 7.57627877, 9.35948717, 37.32860833, 22.24241444, 14.54733653, 17.15153054
11.27497228, 2.88530761, 6.23097103, 11.42475383, 36.61796007, 18.87193684, 11.78558441, 16.58463144
9.08019824, 3.01247407, 5.51135192, 11.79512611, 27.86799239, 22.78705773, 14.69268525, 21.80538924
8.61974478, 3.59861084, 4.28952212, 10.43072385, 26.24452324, 25.80503827, 15.23072552, 21.33190099
8.63278634, 3.44238290, 4.22196637, 12.29735744, 35.91587393, 26.23499571, 13.52405265, 16.89082591
8.57758707, 2.91976026, 3.11849323, 11.86802427, 38.09265021, 21.08850398, 10.68527024, 17.37886648
8.71779789, 3.36897611, 3.48568501, 9.98874366, 32.72957378, 21.70598996, 13.92120684, 15.46609194
6.78232998, 3.01247407, 4.43565102, 13.45362405, 35.18664519, 31.04110178, 18.49324201, 15.57000321
8.54839166, 3.09838668, 5.50000000, 13.42572158, 44.65366726, 25.74684447, 14.42307179, 21.16305744
9.27900857, 3.25960120, 5.05964426, 10.20661550, 42.50499971, 15.11869703, 8.18077013, 20.50731577
7.52163546, 2.82842712, 3.78483817, 11.38749314, 42.10017815, 19.18593235, 10.79699032, 16.76752814
7.44983221, 3.17017350, 3.82426464, 12.34301422, 44.33170423, 17.42842506, 12.12847888, 20.93979465
6.86112236, 3.20546408, 3.85356977, 13.87083271, 38.13200755, 17.26195238, 11.73349905, 21.75373531
8.85720046, 3.22490310, 4.47493017, 18.39157416, 39.50411371, 18.42891749, 11.13440614, 24.59115695
9.94484791, 3.88908730, 5.64136508, 17.07117453, 39.53985331, 16.01093376, 10.55343546, 23.18188948
7.78620575, 3.67083097, 5.82451715, 12.83062742, 37.03343084, 18.26882591, 10.56409012, 20.08233054
6.12984502, 3.23651047, 5.70526073, 15.10380747, 43.24205129, 19.09253781, 9.36349294, 21.15242303
7.48999332, 4.69840398, 8.75357070, 16.58538513, 47.43943507, 15.73848786, 7.77495981, 16.99411663
8.95823643, 5.93717104, 9.75192289, 16.62152219, 48.81802946, 17.53924172, 8.56446145, 19.47626761
8.71492972, 5.00000000, 7.01248886, 17.36087555, 46.48225468, 18.62390936, 11.65010730, 21.57834563
7.96398142, 3.51781182, 5.86301970, 15.68199605, 42.11353702, 16.76007160, 11.54339638, 18.99341991
7.61577311, 3.68781778, 6.83008053, 14.26359001, 46.55534341, 18.09488878, 9.55510335, 19.55760722
7.20763484, 3.43147199, 5.94768863, 13.53421590, 44.85950290, 21.12581359, 8.73355598, 20.18848682
6.27893303, 2.78836870, 6.09713047, 10.72030783, 37.49466629, 19.28470897, 7.50666371, 15.91618673
6.51344763, 3.27871926, 7.65343060, 15.52175892, 44.39172220, 14.02230366, 7.21110255, 16.45068388
6.66708332, 3.47850543, 6.53643634, 15.78131807, 40.60818883, 15.64688467, 7.63708059, 19.27044369
6.61626783, 3.12249900, 4.86055552, 12.17374223, 29.73634140, 19.33778684, 7.48331477, 18.29412474
7.60098678, 3.00416378, 6.50768776, 13.43781976, 35.27463678, 16.90488095, 6.81725751, 18.18996976
6.27096484, 2.98328678, 6.28689112, 13.76953158, 37.59620992, 13.89424341, 5.72494541, 16.97866308
4.37035468, 3.17804972, 4.46934000, 15.11704336, 40.04684757, 17.59119098, 6.80073525, 14.85260920
6.56696277, 3.24037035, 4.21900462, 14.84419078, 43.73928440, 18.94663559, 9.10906142, 15.76943246
7.01605302, 3.22877686, 3.97492138, 13.38562662, 47.86439178, 17.71722326, 8.65881054, 15.43129936
5.11615090, 3.27490458, 4.42436436, 12.61546670, 40.93226112, 15.95697340, 7.32632241, 14.12975584
4.26321475, 3.01662063, 4.25440948, 10.32593821, 33.83637096, 14.86522788, 6.79889697, 15.52417470
6.18061486, 3.19765539, 4.18628714, 10.97269338, 33.40883117, 14.50603323, 6.97853853, 20.17176244
6.81725751, 3.17017350, 4.94974747, 13.15674732, 29.08006190, 13.32009760, 8.22344210, 20.74066055
5.48406783, 2.67861905, 4.49165894, 12.18810896, 29.12730678, 10.60660172, 7.15716424, 16.69880235
4.59347363, 2.48495473, 2.94533530, 10.75987918, 45.20398213, 13.22497637, 4.81144469, 19.13177984
7.23014523, 2.42899156, 3.13448560, 11.83110308, 46.64734719, 20.52011209, 7.13267131, 26.26737520
8.64146978, 2.58360214, 3.74165739, 13.15389676, 47.51789137, 21.90662000, 12.31767023, 25.12468905
8.55569985, 2.74772633, 3.58468967, 11.99791649, 49.82996087, 16.80252957, 14.63642716, 16.66433317
7.48498497, 3.15039680, 4.46654229, 10.50595069, 42.34648746, 17.82694590, 11.90588090, 15.77339532
5.36889188, 3.18198052, 4.69041576, 11.35451452, 36.21636370, 18.15075756, 7.56306816, 15.34193599
5.49772680, 2.88097206, 3.48926926, 11.31370850, 33.15682434, 17.91158843, 8.60232527, 17.33926181
6.03945362, 2.57390754, 2.91976026, 12.25459098, 35.36665096, 22.41260806, 11.53689733, 17.59900565
6.85383105, 2.50000000, 4.10182886, 14.38836335, 28.70931904, 22.57487541, 9.86661036, 16.83300330
6.04359165, 2.31840462, 4.17731971, 12.64713406, 36.59849724, 17.36951352, 7.39594483, 16.62603380
5.22494019, 2.15638587, 3.04138127, 9.66566087, 39.60839557, 15.52739515, 8.63712915, 16.83374587
5.19615242, 2.19089023, 2.54460213, 9.78008180, 32.16558720, 20.00749859, 7.53491871, 18.04438971
5.04232089, 2.01866292, 2.46981781, 9.82344135, 28.47674490, 21.95905280, 7.37733014, 13.52497689
6.13188389, 2.41350368, 2.87228132, 10.28348190, 25.80842886, 19.57485632, 8.28552955, 15.85481000
6.04772685, 2.92831009, 3.64005494, 11.44552314, 24.67285958, 15.18222645, 9.48683298, 18.53307854
4.89897949, 2.61247010, 3.33166625, 11.66297561, 25.99855765, 19.36168898, 10.98976797, 15.99296720
3.84057287, 2.34520788, 2.58843582, 9.89444288, 33.70719508, 21.38223562, 10.54632637, 16.56577798
4.28660705, 2.59807621, 2.90688837, 9.07606743, 36.78654645, 18.61719635, 8.95265324, 17.12746333
4.83476990, 2.65518361, 2.98328678, 10.12422837, 33.77869151, 19.94053660, 8.95125689, 18.61249580
4.40738017, 2.59326050, 2.74317334, 10.58890929, 32.81996344, 22.20923231, 9.63846461, 17.35007205
5.67890835, 2.70647372, 2.58360214, 11.39627132, 32.38247983, 19.07157571, 9.95740930, 17.87805918
5.85875413, 2.98328678, 3.24037035, 12.14392852, 27.65863337, 16.10589954, 10.20784012, 19.25032467
5.36889188, 2.94108823, 3.94017766, 12.89282746, 24.65866987, 16.63956129, 8.56300181, 21.86835613
5.62138773, 2.66458252, 3.80788655, 12.90155029, 34.68681306, 13.72861974, 9.95991968, 22.04654168
5.16236380, 2.26384628, 3.02489669, 9.22496612, 35.08418447, 11.39627132, 10.40552738, 15.95305613
4.99749937, 2.32379001, 3.12649964, 9.85393322, 28.21613014, 12.04885887, 6.71379178, 17.05212597
5.73149195, 2.94108823, 4.12613621, 11.04762418, 28.89117512, 16.25807492, 6.71192968, 19.89220953
6.44980620, 2.85919569, 3.83405790, 8.00156235, 32.56877339, 16.72049640, 7.58781919, 22.36962226
5.42217668, 2.97069016, 4.28660705, 10.36580918, 35.79001257, 11.32143984, 6.48459713, 20.73583854
4.11096096, 3.15436206, 5.33619715, 11.16131713, 33.68159735, 11.82370500, 8.27798285, 16.67183253
5.28204506, 2.47991935, 4.41871022, 10.08712050, 28.78193878, 12.85593248, 8.75357070, 15.70429877
8.07619960, 2.68793601, 3.77822710, 10.24695077, 29.39940476, 11.95303309, 6.36985086, 19.52242301
9.65919251, 3.22490310, 4.81144469, 11.24166358, 32.88464687, 16.82111768, 5.74020906, 21.81054791
8.12096053, 3.09030743, 4.76969601, 12.18810896, 38.66458328, 17.29595328, 7.78460018, 20.14758050
5.27257053, 2.64102253, 3.66060104, 13.97408315, 38.99423034, 15.66764181, 7.41788380, 16.50075756
4.61519230, 2.40312297, 3.46049129, 13.89244399, 30.53440682, 14.00000000, 6.26298651, 13.70492612
5.64579490, 2.42383993, 3.44963766, 10.55461984, 26.73808146, 10.65950280, 7.66811581, 15.76863976
6.21892274, 3.04548847, 4.73550420, 9.17469346, 32.74522866, 11.12542134, 7.15017482, 15.92482339
7.22495675, 4.56618002, 10.30533842, 8.26589378, 33.64372155, 13.13773192, 7.41788380, 20.25154315
7.03562364, 7.20069441, 15.53463871, 10.65833008, 39.15450166, 20.05617112, 8.62844134, 19.82864090
5.68770604, 8.04673847, 17.08800749, 12.09338662, 38.03386649, 24.81179155, 7.82464057, 13.43130671
6.12984502, 6.90832831, 16.11365880, 13.13011805, 27.27819642, 22.38414618, 7.38410455, 13.34353776
6.79521891, 6.65394620, 20.25277759, 14.66969666, 38.12577868, 18.56071119, 9.95740930, 16.62001805
7.81024968, 11.81207010, 28.85784122, 13.12059450, 44.40973992, 19.24902595, 12.54292629, 19.73512098
7.43975806, 13.83564238, 31.66425429, 13.36787193, 40.44286093, 17.22498186, 10.95331000, 18.47633622
7.20936890, 10.72497086, 25.77110785, 15.22415843, 41.11052177, 14.43779762, 8.29156198, 16.69805378
8.43356390, 8.33666600, 19.09515645, 13.81484709, 36.10540126, 16.75485004, 8.29909634, 19.04468430
8.52203027, 7.41788380, 17.31834288, 12.08718329, 30.13220868, 17.03158830, 8.19451036, 17.61959137
6.56886596, 5.64358042, 13.63359820, 10.48451239, 28.14471531, 14.34137371, 6.92639878, 16.06082190
5.48634669, 3.74833296, 9.23850637, 9.30994092, 26.97776863, 14.82396708, 7.77013513, 18.89444363
6.42650761, 3.64005494, 8.64291617, 10.97155413, 28.68841229, 13.98838804, 8.42763312, 18.42959576
7.41114026, 4.51663592, 9.31262584, 12.82867881, 26.69971910, 14.93151031, 5.94768863, 18.25102737
7.79583222, 4.72228758, 10.38508546, 12.43784547, 32.42568426, 16.52422464, 7.37054950, 17.82133553
7.42293742, 3.71819849, 8.90365094, 10.15258588, 36.21429276, 16.28649747, 8.97496518, 17.24166465
6.40897808, 3.11849323, 5.71839138, 9.46308618, 33.03293811, 16.44536409, 9.71081871, 17.67908369
5.55427763, 3.14245127, 7.83741029, 10.82358536, 33.09909364, 13.55820785, 9.16242326, 16.62302620
6.98212002, 3.37638860, 7.88352713, 10.98407939, 30.68224242, 17.62881164, 9.91211380, 18.74566617
7.83581521, 3.12249900, 4.37035468, 8.71492972, 34.22024255, 19.44286502, 11.47824028, 18.43230859
7.01248886, 3.00416378, 4.23379263, 11.60926354, 36.80760791, 16.66208270, 10.12422837, 18.02151492
6.09097693, 2.94533530, 3.94334883, 14.05880507, 29.38494513, 17.32122975, 10.05733563, 20.40465633
6.60113627, 3.57071421, 3.92746738, 13.06235048, 29.17061878, 17.39540169, 9.56425637, 20.33346994
7.07636913, 3.82099463, 4.33589668, 11.39736812, 33.39423603, 15.59166444, 8.25530133, 17.08654441
6.22494980, 2.85919569, 5.88642506, 10.94189198, 37.51832885, 20.06427173, 9.06504275, 13.91042774
6.20080640, 4.52769257, 8.69482605, 10.04489920, 39.58408771, 20.96962088, 9.81707696, 17.19883717
7.49166203, 4.86055552, 11.37760959, 8.42911621, 36.02186836, 17.39683879, 10.97383251, 19.64879131
7.31266025, 4.08044115, 12.19938523, 10.12669739, 27.12379030, 19.72054766, 10.40913061, 18.47024634
5.58569602, 4.40454311, 9.75832978, 11.50869237, 30.90994985, 21.82028872, 8.13941030, 18.90238080
5.59016994, 4.07124060, 7.16763559, 11.98540779, 34.21439755, 18.53914777, 8.61394219, 15.76863976
6.48459713, 4.54147553, 8.20670458, 11.43131663, 28.36679397, 18.80226050, 8.63423419, 13.66747965
6.83739717, 4.64758002, 8.52936105, 10.16980826, 23.66379091, 19.99749984, 9.14877041, 19.00460471
6.99285349, 4.20119031, 8.29156198, 10.49642796, 27.15234796, 16.96098464, 10.61367043, 17.71016657
5.77061522, 4.19225476, 7.95455844, 11.72603940, 31.28777717, 17.51499358, 9.76217189, 15.14843226
5.27967802, 4.00312378, 8.29306940, 10.82474018, 34.58106418, 17.02131017, 8.57321410, 15.48466984
5.39444158, 3.42417873, 9.51183473, 11.25944048, 37.87083310, 17.23513853, 9.37016542, 15.58845727
7.46491795, 3.30151480, 8.78919792, 12.10165278, 34.98571137, 19.39200866, 9.96995486, 16.42635078
8.05915628, 4.33877863, 13.07382882, 10.75174404, 31.42968342, 17.57199476, 8.38301855, 15.29624137
5.96028523, 4.00312378, 13.00192293, 11.61356965, 27.36329659, 16.62453007, 7.12565786, 13.09484631
5.20576603, 3.21714159, 8.18535277, 11.33798924, 24.32848125, 14.80287134, 7.56472075, 11.28383800
5.15509457, 3.59513560, 7.48164420, 9.21411960, 27.34090342, 8.29005428, 7.62233560, 14.04724172
5.72712843, 2.99165506, 4.83735465, 10.21518478, 37.98157448, 14.44126033, 6.38553052, 14.84587485
5.21296461, 2.78388218, 4.80884602, 8.91207047, 37.02431633, 15.41995460, 6.65206735, 13.53790974
4.59891292, 3.07814879, 4.49722136, 5.96447818, 26.91375113, 11.76116491, 8.69195030, 16.17173460
6.58027355, 3.11448230, 5.10392006, 8.82468130, 29.38196726, 14.67310465, 8.15781834, 17.56843761
6.31466547, 3.26343377, 7.66485486, 11.08489964, 32.67682665, 14.65093854, 7.03029160, 16.91522982
4.72493386, 3.54612465, 10.24207010, 12.09028536, 34.73902704, 14.70969068, 6.93361378, 16.40274367
5.66127194, 5.54301362, 14.54561790, 11.46625484, 33.14438112, 14.69268525, 7.22841615, 17.50071427
7.50333259, 9.86787718, 24.98999800, 13.53236860, 31.34884368, 12.66096363, 8.83317610, 16.75410397
6.97674709, 12.11713663, 31.71198512, 15.88710169, 29.97165327, 10.11681768, 8.00624756, 19.70786645
6.12168278, 10.15874008, 27.97766967, 14.91308151, 33.98823326, 8.36361166, 7.16240183, 19.29378138
6.66333250, 7.89778450, 20.34146012, 11.75797602, 37.27733896, 12.70924860, 7.95455844, 13.48795759
7.06045324, 7.13267131, 17.99235949, 10.21518478, 32.41026072, 14.80118239, 6.84287951, 14.55936125
7.06222345, 5.81592641, 15.60528757, 10.84320063, 29.73550067, 13.36693682, 6.55934448, 16.30797351
7.13091859, 6.51536645, 16.03355856, 10.34649699, 30.13179384, 13.13582887, 6.32850693, 19.20481710
7.76047679, 7.01427117, 18.37049264, 12.57676429, 34.66915055, 13.14629225, 6.27694193, 19.15659155
7.21283578, 5.45206383, 15.16080473, 12.64219127, 35.85909926, 12.96148140, 7.21110255, 15.94600263
6.34625874, 4.23969339, 12.99615328, 9.55641146, 29.67364150, 14.05524813, 9.10357073, 21.84261889
5.97913037, 4.62601340, 13.11678314, 8.99722179, 27.81591271, 12.03120942, 9.56164212, 21.96019126
5.58121850, 4.20713679, 10.48093507, 10.33803656, 29.04866606, 13.46476884, 7.22495675, 14.54905495
5.38980519, 3.73496988, 9.31262584, 11.90903019, 26.49716966, 15.06403001, 7.27323862, 14.18978506
7.16763559, 4.34453680, 8.95265324, 11.38419958, 28.13449840, 12.25153052, 7.92937576, 17.97428719
7.16240183, 4.84767986, 9.71725270, 9.85773808, 32.17063879, 11.42147101, 7.53989390, 17.14788617
6.05185922, 5.07444578, 11.64366781, 11.73882447, 30.25970919, 10.52853266, 7.28182669, 15.38830725
6.31268564, 4.25734659, 10.02247474, 11.23053872, 28.78020153, 14.97664849, 7.72819513, 14.26972319
5.81807528, 3.83079626, 7.10633520, 8.95823643, 28.43545322, 20.25709752, 14.99166435, 14.58080931
5.70306935, 4.59075157, 11.30376044, 9.71339282, 28.23959986, 27.73490580, 15.88474111, 16.33707440
5.81807528, 4.65832588, 12.79648389, 11.57151675, 32.45150228, 29.67995957, 11.03630373, 14.76228302
5.28204506, 4.45533388, 11.32806250, 11.70469991, 33.95327672, 25.41308718, 11.19486489, 15.14182948
5.35256948, 3.99374511, 11.43787568, 11.54556192, 33.12476415, 25.95187854, 11.35781669, 13.99374860
5.67230112, 4.14125585, 10.41873313, 11.78240213, 34.40058139, 25.16843261, 10.85472247, 16.73917561
4.98998998, 3.99061399, 9.31262584, 10.52378259, 38.86257840, 21.36059456, 9.59296617, 18.54858485
6.12372436, 3.50000000, 8.72209837, 9.57862203, 37.25956253, 18.32621074, 8.59360227, 14.23376268
7.68602628, 3.44963766, 10.07844234, 10.29927182, 30.22705742, 22.37800259, 9.66695402, 17.27642903
7.35696948, 3.29772649, 9.25742945, 10.38388174, 34.79978448, 22.20360331, 10.91787525, 23.96977263
9.39148551, 3.58120092, 8.01560977, 10.41513322, 39.17109904, 17.80098312, 10.64307286, 21.63099628
9.32737905, 3.24037035, 10.11187421, 11.21271600, 35.99340217, 20.28915967, 9.72625313, 13.15009506
10.21273715, 3.03726851, 10.40072113, 10.53921249, 36.94150782, 19.91544627, 9.02080928, 14.65008532
12.27090054, 3.19765539, 7.77978149, 10.38749248, 34.17711222, 19.44479365, 9.14193634, 17.87805918
11.50977845, 3.05368630, 8.36211696, 11.17362967, 27.30842361, 19.83998488, 8.60523097, 18.53240405
9.35815153, 3.61939221, 8.91487521, 11.66511894, 36.18839593, 18.89708972, 8.30511890, 17.67201177
7.27151979, 3.69120577, 8.19298480, 13.15674732, 41.14820774, 16.65382839, 10.31624932, 16.31563667
7.84856675, 4.92950302, 12.71514845, 12.09442020, 36.74472751, 21.17722834, 10.15504801, 15.87844451
11.32475165, 5.55652769, 15.62049935, 11.31702258, 32.42799716, 24.33310502, 10.21151311, 15.34682378
11.60387866, 4.99499750, 14.29947551, 13.49259056, 33.88546886, 22.98695282, 10.43431838, 18.30846799
8.10863737, 4.72757866, 13.79220795, 12.07062550, 36.78994428, 22.45495491, 10.96129554, 18.28523995
6.80073525, 4.27784993, 13.19090596, 9.60078122, 33.63963436, 18.75366631, 10.08835963, 15.81534065
7.46993976, 4.44971909, 13.63909821, 9.41275730, 32.74102931, 17.77498242, 7.91043614, 15.05074749
8.33666600, 4.89642727, 15.22744233, 10.48808848, 34.55973090, 14.69523732, 10.02372186, 14.67566012
7.03384674, 4.84510062, 13.07382882, 11.06345335, 36.43658875, 8.40981569, 9.79157801, 14.41266804
7.67789034, 4.61248306, 10.34770506, 9.68762097, 34.30488303, 12.36628481, 9.42470159, 15.40535621
7.68765244, 4.27200187, 9.89065215, 8.92048205, 34.88158540, 14.69438668, 8.97775027, 16.74290895
8.39791641, 4.02802681, 9.39946807, 8.95265324, 31.38749751, 11.23498999, 7.09929574, 15.42724862
10.65950280, 4.85540935, 11.26609959, 10.62426468, 21.66391008, 10.97952640, 7.96868873, 12.56483187
9.50394655, 5.23688839, 13.21457529, 11.61141680, 27.58215002, 12.32781408, 6.93181073, 12.92671652
8.32316046, 4.71699057, 11.53147866, 9.52890340, 33.31928871, 11.67154660, 4.93203812, 13.56189515
9.44722181, 4.41304883, 9.70566845, 9.70953140, 29.81819914, 14.00803341, 5.54977477, 12.83452375
9.08157475, 4.81663783, 10.89036271, 10.42233179, 20.23054621, 11.99687459, 7.22495675, 11.36441815
6.88658115, 4.74605099, 10.16366076, 8.68043778, 22.23173408, 8.52496334, 6.50000000, 9.68633057
6.31664468, 5.05964426, 9.51052049, 8.72926114, 26.96061943, 9.11729126, 6.92820323, 13.49814802
8.85155354, 4.83218377, 8.89241250, 9.11180553, 22.89923580, 7.93567892, 8.60813569, 16.19876539
9.69149111, 4.11703777, 7.41451280, 9.90580638, 35.66475852, 7.79262472, 8.37108117, 17.99027515
7.04272674, 3.87298335, 7.22322643, 9.78008180, 35.83120149, 7.43807771, 7.96555083, 17.99652744
5.22972275, 2.97489496, 8.37705199, 8.05760510, 22.48443906, 9.68374927, 6.46915760, 13.82750881
5.75108685, 3.39116499, 11.52931047, 8.16547610, 26.29591223, 12.52597302, 5.31507291, 12.29634092
5.86941224, 4.24264069, 9.88180146, 9.78263768, 26.77452147, 10.20661550, 6.10737259, 15.98123900
6.00832755, 3.90832445, 8.49117189, 9.97872737, 26.45184304, 11.10742995, 6.67645115, 15.99218559
6.25899353, 4.02181551, 10.33440855, 10.19436119, 32.05035101, 11.00908716, 6.20282194, 12.97593927
8.68475676, 5.47265932, 13.84196518, 9.07606743, 35.81829142, 12.91317157, 5.22972275, 17.22353042
8.91066776, 5.17687164, 13.62534403, 6.91917625, 33.44061901, 15.32807881, 6.13799642, 18.34802442
6.37965516, 3.86005181, 9.22496612, 8.22952003, 27.59030627, 12.69547163, 7.22322643, 15.50403173
6.36592491, 3.94651745, 9.91841721, 8.85720046, 19.94805755, 9.71725270, 7.09577339, 14.99249812
8.61103943, 4.83218377, 12.27599283, 10.32230594, 23.87833746, 13.15389676, 7.32632241, 16.45068388
8.89381808, 4.28952212, 10.74243920, 9.60468636, 25.02099119, 13.31915913, 6.07865117, 19.17876430
7.16763559, 3.50000000, 9.08157475, 8.43208159, 26.58382967, 9.56817642, 5.90973773, 18.27087847
7.38918128, 3.68103246, 9.64235448, 9.11043358, 27.67851152, 15.31992167, 6.90289794, 15.06320019
7.24568837, 3.89230009, 9.70953140, 11.34570403, 27.28644352, 16.42863354, 6.28092350, 13.78132795
6.17454452, 4.67974358, 10.51308708, 12.72595772, 26.65661269, 12.17682225, 6.54790043, 15.00333296
5.67230112, 4.21604080, 8.98749131, 10.84665847, 23.43608329, 9.28035560, 6.05805249, 14.49396426
6.30277717, 3.45687720, 7.35866836, 11.24388723, 30.17697798, 8.16853720, 5.15751878, 12.72006289
6.81358936, 3.75166630, 7.56141521, 10.62191132, 31.57530681, 10.17840852, 5.79870675, 12.90639376
7.54320887, 3.43511281, 7.97182539, 8.50588032, 27.29926739, 14.65776245, 5.58121850, 12.93928128
7.54320887, 3.17411405, 8.14555093, 9.16651515, 25.11025687, 13.75318145, 6.41482658, 16.49696942
6.66708332, 3.25960120, 6.71565336, 8.16700680, 25.91524648, 7.89461842, 8.83742044, 17.41909871
7.10633520, 2.86792608, 3.94651745, 7.68927825, 31.80880381, 7.62889245, 8.62409416, 14.46720429
6.30674242, 2.77488739, 3.54259792, 11.80148296, 31.92882710, 8.52936105, 6.57457223, 14.91224329
5.45893763, 2.79732015, 3.29772649, 12.27701104, 32.68830066, 8.03741252, 5.20096145, 16.19181892
5.89279221, 2.39791576, 3.18198052, 10.32351684, 36.79605957, 8.19451036, 6.28887907, 15.92874760
6.12168278, 2.38746728, 3.48926926, 10.06975670, 39.85630439, 9.08982948, 8.26740588, 17.37958573
5.37354632, 2.34520788, 3.12249900, 8.73069299, 33.86665026, 10.81665383, 9.02773504, 15.82482227
6.18061486, 2.12720474, 3.60901649, 9.58775260, 21.69504552, 12.34301422, 8.36510610, 13.91581834
6.47302093, 2.72488532, 5.22494019, 10.42473021, 25.33081128, 10.87772954, 7.60263112, 14.99666630
5.97285526, 3.63661931, 8.87975225, 10.85126721, 29.48686148, 11.09279045, 9.40611503, 27.02730101
7.35866836, 4.59347363, 12.96533841, 11.46734494, 33.71720629, 13.03936348, 9.60598772, 31.65596310
6.68206555, 5.38980519, 14.61335006, 11.42912945, 37.28806780, 13.38936145, 7.44647568, 24.49591803
6.75462804, 5.00499750, 12.63032066, 10.57118726, 34.93064557, 13.43316791, 7.11336770, 19.37008002
6.94262198, 3.44601219, 11.09842331, 10.26888504, 33.06244093, 13.35945358, 8.58632634, 16.65082581
4.75131561, 3.37638860, 10.12669739, 9.92849435, 33.36127995, 12.74852933, 7.83741029, 16.99411663
4.74341649, 3.63318042, 9.17605580, 9.37949892, 32.79405434, 12.59265659, 6.35413251, 18.83878977
4.85283422, 3.94334883, 10.29684418, 8.90786170, 27.82355118, 13.23064624, 5.99374674, 17.79957865
8.18229797, 4.86312657, 10.91214919, 7.87559522, 23.41634045, 11.21048616, 5.35023364, 14.49482666
8.68043778, 4.75920161, 10.59245014, 7.71362431, 30.20844253, 7.90411285, 7.41619849, 11.44224628
5.16962281, 4.29534632, 10.14149890, 9.51052049, 37.62180219, 9.66824700, 7.80864905, 9.66695402
4.16233108, 3.88265373, 9.21411960, 10.02496883, 33.11646116, 9.57601170, 5.26070338, 12.66984609
4.34165867, 3.99687378, 7.93095202, 8.32916562, 23.86053227, 8.17618493, 6.98032951, 14.47411483
5.01996016, 4.87596144, 11.14001795, 10.73196161, 25.62469512, 8.91347295, 9.15150261, 15.40616760
5.47950728, 5.07444578, 12.86273688, 10.51903037, 29.73255791, 7.48331477, 7.54983444, 15.31094380
5.20096145, 4.08656335, 9.51971638, 10.27618606, 28.52411261, 7.51664819, 8.23711114, 18.34189194
5.52268051, 3.27490458, 7.21110255, 10.29320164, 33.68308181, 7.65343060, 7.94984277, 21.10035545
5.60357029, 3.70135110, 10.34649699, 9.75704873, 45.13673670, 7.01427117, 5.00499750, 15.95462315
5.48634669, 4.17133072, 11.59310140, 12.21883792, 39.94120679, 8.55569985, 7.12390342, 12.18708333
8.09475139, 4.50277692, 12.29430763, 12.52297888, 28.43281555, 8.44393273, 7.90253124, 16.63580476
7.47830195, 3.78483817, 11.70576781, 10.47497017, 28.97844026, 6.99642766, 7.22841615, 16.63430191
4.38178046, 2.77037904, 8.44541296, 9.02219485, 29.22242290, 7.46659226, 6.40312424, 13.94274005
5.94138031, 2.69258240, 5.84166072, 9.94233373, 34.68284879, 11.04536102, 6.84287951, 17.96594000
6.42650761, 3.70135110, 8.51616111, 10.55106630, 33.75944312, 11.78664498, 6.63136487, 18.97893569
5.54075807, 4.08044115, 10.10569147, 11.42475383, 28.19308426, 8.46315544, 6.94802130, 16.33630925
5.27019924, 3.90512484, 9.00832948, 10.38749248, 27.04856743, 7.28010989, 7.12390342, 18.37389452
5.89915248, 3.58120092, 8.36062199, 7.91675439, 26.76471558, 7.90885580, 4.90917508, 17.23803933
6.05805249, 3.27108545, 7.47328576, 8.91207047, 30.08321791, 7.30410843, 5.72931060, 15.19128039
5.42908832, 4.69574275, 10.70513895, 10.33319892, 33.84745190, 7.62233560, 6.32455532, 14.32742126
6.32455532, 4.81663783, 11.54123044, 9.50526170, 34.79583308, 9.13509715, 7.27839268, 11.56719499
6.58217289, 3.95284708, 9.27092228, 8.50881895, 30.60963900, 8.56738000, 7.72172261, 11.92686044
5.70964097, 4.34453680, 12.51199425, 7.49333037, 30.57695210, 10.22007828, 8.01872808, 14.50344787
5.86728216, 5.17687164, 15.16492664, 10.49285471, 29.46438528, 11.32695899, 8.70201126, 16.12451550
5.94978991, 5.03487835, 12.53195914, 11.58123482, 26.50471656, 9.04986188, 7.72010363, 13.88254299
5.80732296, 3.94968353, 8.52496334, 8.62988992, 26.35194490, 9.78263768, 7.33314394, 10.99545361
6.63513376, 3.58817502, 11.55205609, 9.49736806, 28.41698436, 10.55225094, 7.64852927, 13.87533783
6.49422821, 4.57711700, 11.80254210, 10.20294075, 32.53498117, 9.83869910, 8.56300181, 14.08279092
5.00249938, 4.74605099, 9.47892399, 8.83459111, 35.49788726, 9.14877041, 8.42318230, 12.72006289
4.99499750, 4.29243521, 10.45107650, 10.27375297, 36.01943920, 8.78350727, 8.77781294, 13.49351696
5.86941224, 3.99061399, 10.18577439, 10.09579120, 33.31028370, 8.59069264, 8.43059903, 14.05169029
7.50000000, 3.33541602, 8.66890997, 10.29077257, 30.82207001, 8.04984472, 6.11964051, 16.71301888
7.40607858, 3.05368630, 6.87568178, 11.85537853, 31.25819892, 9.06366372, 6.05805249, 18.35551688
5.43829017, 3.19374388, 8.39344983, 11.75053190, 30.26879581, 8.87834444, 6.66708332, 17.71581215
6.44592895, 3.81772183, 9.34077085, 12.04159458, 27.72318524, 8.28251170, 6.70074623, 18.73699549
6.82275604, 4.14125585, 8.89522344, 12.48398975, 27.70559510, 8.13941030, 5.47265932, 19.04337155
5.74456265, 3.62973828, 7.64689479, 12.20245877, 28.69059079, 6.88839604, 5.65022123, 16.56351412
5.58121850, 2.88530761, 6.41482658, 9.76601249, 34.85003587, 9.24391692, 6.49230314, 14.98916275
4.99249437, 3.20936131, 7.06929982, 8.56008178, 32.20364886, 10.26888504, 7.11336770, 13.87894088
5.33619715, 4.02181551, 8.20670458, 9.86661036, 24.85960579, 10.35132842, 7.70064932, 13.13582887
6.89927532, 3.97806486, 8.48086081, 10.23352334, 32.77918547, 10.18577439, 7.55976190, 14.47929556
7.43471587, 3.33541602, 7.70551750, 9.10631649, 34.12806763, 6.85383105, 8.46167832, 14.90218105
6.77310859, 6.42650761, 16.57030476, 12.68956264, 33.81530718, 7.24396300, 7.75080641, 15.93894601
6.02079729, 10.00624805, 22.35229295, 13.51110654, 32.49461494, 7.86447710, 7.16937933, 17.56132113
5.55877684, 12.52697090, 29.46947573, 13.45269490, 31.40660759, 8.30060239, 8.14401621, 19.69517707
4.61789996, 11.85432411, 30.64351481, 13.84467407, 30.08778822, 9.93352908, 7.70227239, 21.31841927
5.48862460, 9.39414711, 26.28497670, 10.50476083, 35.63320081, 10.48928024, 6.86112236, 19.68565468
6.74722165, 8.98470923, 22.66219319, 11.06006329, 39.41890409, 9.07882151, 6.29086640, 17.95619670
7.45654075, 8.21888070, 20.43036955, 10.27740240, 35.31961212, 7.42462120, 5.95608932, 18.06723554
7.70227239, 5.96657356, 18.63598669, 8.11788150, 39.82335998, 6.80073525, 5.12347538, 18.07761046
6.16644144, 4.76969601, 15.47821049, 8.80198841, 33.23740363, 7.04627561, 4.43001129, 18.82086608
4.55247186, 8.73069299, 21.97327923, 12.88118783, 27.51045256, 8.76356092, 6.89383783, 18.24417715
4.72228758, 10.38147388, 24.65866987, 14.61848145, 32.16208948, 8.33816527, 8.06535802, 13.90863041
5.87579782, 7.99061950, 20.46399277, 12.51299325, 37.03579350, 7.15716424, 7.51165761, 17.38318153
5.54301362, 6.60492241, 17.39612026, 11.85010548, 36.95943723, 7.65669642, 7.03206940, 18.77764628
4.68774999, 6.19273768, 15.59487095, 10.26888504, 34.75017986, 7.77656737, 6.13188389, 17.08508121
4.89897949, 4.81404196, 12.23723825, 8.81192374, 32.36587709, 7.97496081, 6.25899353, 16.61926593
5.38052042, 5.57449549, 12.47998397, 9.51314880, 30.56673028, 8.59069264, 6.29285309, 17.71228387
5.97285526, 6.12780548, 13.66016105, 9.97622173, 32.19394353, 8.80908622, 6.46335826, 19.87963782
6.28092350, 5.54977477, 12.94990347, 9.85012690, 28.86650308, 9.88812419, 7.70713955, 17.09020187
6.56315473, 4.22492603, 11.36331818, 10.39471019, 31.76672788, 9.82471374, 7.73142936, 16.97129930
8.14861951, 4.09572948, 11.85116028, 12.85204264, 36.24362013, 8.74213933, 7.64035339, 17.43272784
9.21004886, 4.92696661, 11.18816339, 12.70728138, 32.70741506, 10.05609268, 6.49230314, 15.86032787
7.29383301, 4.39033028, 9.21547611, 11.66404733, 29.75441144, 9.43927963, 7.37394060, 16.84265419
5.33619715, 3.29393382, 7.47997326, 10.50714043, 29.11271200, 8.93168517, 8.33966426, 16.12606586
5.36656315, 2.57390754, 6.93000722, 9.15969432, 35.23386155, 9.44325156, 7.08872344, 14.46029045
5.12103505, 2.73404462, 7.27495704, 9.01110426, 37.50466638, 7.92148976, 6.56696277, 15.19539404
7.21630099, 2.87662997, 6.00624675, 8.00000000, 30.04995840, 8.07000620, 5.32447180, 16.23268308
7.55645419, 3.12649964, 6.03324125, 8.42763312, 29.28864968, 8.53814968, 4.39886349, 14.55506785
6.58596994, 3.44963766, 9.39813811, 11.05441088, 27.54541704, 6.63701740, 5.48406783, 13.02689526
6.38161422, 4.48051336, 11.53798076, 11.77072640, 28.72803509, 8.47348807, 6.57076860, 16.20570887
6.29285309, 5.47722558, 12.98941877, 11.56503351, 30.49262206, 10.48093507, 8.08084154, 17.71933972
8.51469318, 8.80340843, 20.43648698, 12.61645751, 35.35144976, 12.65405073, 10.94760248, 16.70179631
8.05605362, 12.32274320, 31.53767588, 13.61892066, 39.53700798, 15.12365697, 11.89537725, 14.30646707
5.12835256, 12.23825968, 34.03601034, 15.66445020, 36.05065880, 15.93188627, 10.29684418, 17.00514628
6.51920241, 9.22361101, 25.51960031, 14.21618796, 38.99390978, 15.73610498, 10.75058138, 20.22498455
7.30239687, 8.58050115, 22.57487541, 13.65833079, 38.46296920, 13.98302542, 11.04536102, 17.53852901
7.13617545, 8.18535277, 22.22273611, 15.22333735, 30.14755380, 11.04196540, 8.26135582, 17.33349359
6.82458790, 5.81807528, 17.95898104, 12.80039062, 30.38050362, 9.65530942, 6.45174395, 17.78552782
6.26897121, 5.59464029, 16.17946229, 11.90483095, 35.80851854, 9.99874992, 6.71565336, 15.47336421
6.65582452, 4.92696661, 11.90483095, 12.42276137, 34.95818931, 8.38301855, 6.16441400, 14.04546190
6.21288983, 3.97492138, 10.13039979, 11.57043647, 38.27041939, 9.78774744, 6.42456224, 15.53463871
6.18061486, 4.76182738, 9.72368243, 9.90202000, 34.45068940, 12.01665511, 7.46324326, 15.11538951
6.07453702, 5.53624421, 10.50833003, 9.68633057, 28.85004333, 11.02270384, 6.80073525, 11.20267825
6.38944442, 4.95731782, 11.82581921, 10.82589488, 32.64238043, 9.75064100, 7.77817459, 12.83160161
6.99106573, 3.76164857, 10.25426740, 10.36339713, 34.35804127, 11.31591799, 7.42630460, 13.73590186
6.03531275, 4.75131561, 10.52140675, 9.72496787, 30.22498966, 10.94760248, 6.34625874, 13.72679861
5.70745127, 6.10532554, 15.73928207, 10.68644001, 25.50539159, 10.00124992, 7.44647568, 14.79442463
8.14861951, 6.39140047, 16.55143498, 11.01476282, 31.51904186, 13.88164255, 9.18694726, 16.01561738
8.06690771, 6.29880941, 12.54691197, 8.49411561, 31.39267430, 13.50092589, 8.95684096, 17.04846034
5.95818764, 5.63471383, 10.68877916, 6.48459713, 33.11759351, 9.86280893, 7.90094931, 14.92564906
6.02079729, 5.51361950, 12.74166394, 9.07331252, 30.86502875, 8.36660027, 8.69195030, 12.26478699
5.87367006, 4.84510062, 12.78964425, 9.30859818, 26.11943721, 9.35681570, 8.57904424, 14.22409927
5.75977430, 3.29013678, 10.68293031, 7.23360215, 26.57677558, 9.18694726, 7.35357056, 16.19104691
6.36199654, 5.25594901, 11.51520734, 8.22496201, 27.25756776, 6.78048671, 8.04207685, 14.63386483
6.98748882, 5.32916504, 11.04422926, 9.78263768, 31.02942152, 7.98592512, 8.22952003, 13.70857396
7.39763476, 4.43846820, 8.99166281, 11.83638458, 40.16839554, 9.77241014, 8.31113711, 15.38180744
6.91917625, 4.48608961, 9.20190198, 11.68011130, 38.10216529, 10.90298124, 8.43800924, 18.12456896
6.02079729, 4.62601340, 11.87434209, 9.26552751, 28.79236010, 9.52365476, 7.47161295, 16.05070092
6.41092817, 5.82237065, 12.88118783, 9.45119040, 33.08285054, 7.86129760, 8.30812855, 11.31260359
6.76941652, 5.00000000, 11.37431317, 11.52280348, 34.92778264, 10.82589488, 8.58923745, 12.90736224
6.51728471, 3.67763511, 11.86697097, 10.82243041, 35.89254797, 12.10578374, 8.12557690, 16.58839956
6.02702248, 5.50000000, 14.86859106, 10.20661550, 38.15363679, 10.90985793, 6.75092586, 17.77568564
14.25394682, 6.91917625, 20.59308136, 13.50833076, 33.70459909, 10.39711498, 6.86294397, 20.69480611
15.86741945, 7.04982269, 20.76053949, 13.48703081, 29.26004101, 10.28348190, 8.02963262, 21.19610813
10.09826718, 6.74907401, 16.28496239, 10.48332008, 30.76605272, 10.53209381, 7.87718224, 15.61809848
9.82344135, 6.24699928, 16.69431041, 10.10940156, 30.41257963, 10.41633333, 8.19756061, 13.52405265
10.42592922, 7.92306759, 20.99821421, 10.54869660, 29.52414266, 8.84024887, 7.41788380, 14.05257983
8.54985380, 8.45724541, 23.21745033, 14.09787218, 33.89764004, 7.86606636, 8.43652772, 15.28397854
7.92306759, 8.67035178, 25.39488137, 16.11055555, 37.74321131, 9.15832954, 10.85472247, 16.93147956
8.28402076, 8.97217922, 24.69615355, 15.84376849, 34.77211526, 10.73661958, 9.26012959, 17.75316873
7.36376263, 9.05400464, 22.46052092, 15.62209973, 31.02096066, 10.97838786, 7.26808090, 18.57955866
8.53814968, 9.39015442, 22.43211983, 12.26580613, 26.72545603, 12.08614910, 7.29040465, 14.83071138
8.92328415, 8.37854403, 20.90693665, 9.65271982, 22.16303228, 13.11201739, 7.52495847, 15.59887816
7.31949452, 6.74536878, 18.89245881, 10.01873245, 24.49336645, 12.73479486, 7.57957782, 17.27932290
6.91736944, 6.70074623, 19.82107464, 11.87855210, 32.17063879, 11.68225150, 7.02851336, 12.86370864
7.61577311, 7.10985232, 19.92987707, 11.05893304, 36.03366482, 10.03244736, 6.73238442, 13.71404390
7.43639698, 5.54526825, 16.67408168, 8.89522344, 37.02262822, 10.47258325, 6.81358936, 15.99531181
8.20975030, 4.60977223, 15.02248315, 8.42318230, 35.96109008, 10.56763928, 6.93181073, 14.85681662
8.08238826, 5.30801281, 17.16974083, 9.19238816, 28.54119829, 12.92284798, 7.20590036, 12.22190656
7.23878443, 5.43369119, 17.08142266, 10.70397123, 25.55386468, 13.73590186, 7.26636085, 13.03456942
8.15015337, 5.31036722, 14.51809216, 10.58064270, 29.79597288, 10.55935604, 7.30581960, 13.70492612
8.69338829, 6.19273768, 14.35095816, 13.33791588, 39.78379067, 11.52171862, 8.30210817, 13.92300255
8.84024887, 7.00000000, 13.73499181, 13.90773166, 40.18146339, 12.11713663, 7.58946638, 19.58060265
9.47628619, 7.63053078, 16.24346022, 13.07478489, 32.50499962, 10.56290680, 5.95189046, 20.85185843
9.07055676, 6.86840593, 15.30277753, 12.37133784, 31.78167711, 9.45780101, 7.67463354, 18.57350263
7.74273853, 5.59910707, 11.93838348, 10.59126999, 27.86888946, 8.80198841, 8.48675439, 18.53847351
8.89662857, 4.77493455, 11.28494572, 9.11454881, 33.85483717, 10.50357082, 6.97316284, 16.43624045
10.72030783, 4.41588043, 10.00000000, 8.14861951, 36.26154988, 11.12205017, 6.81542368, 13.55451954
9.65142477, 4.93963561, 11.06345335, 10.02496883, 28.40290478, 10.55698821, 7.03740009, 11.17139204
8.37108117, 5.36889188, 12.94797281, 11.26388033, 33.33916616, 10.88462218, 7.77335192, 17.26267650
8.21431677, 5.57000898, 13.74590848, 9.97496867, 32.77804143, 13.13487724, 8.40832920, 18.72832080
6.84835747, 5.30330086, 14.48878877, 9.48024261, 31.46585451, 11.39517442, 7.11336770, 14.28460710
7.07283536, 5.77061522, 15.45800763, 10.83051245, 31.76003778, 9.92345706, 6.37965516, 15.14760707
6.47108955, 5.61025846, 14.56107826, 10.22374687, 28.19751762, 9.74935895, 6.33837519, 15.87844451
6.98748882, 4.95479566, 12.86176504, 10.01873245, 34.03784658, 9.02358022, 5.96028523, 18.11491099
10.18209212, 4.27784993, 11.07925990, 10.42473021, 39.54585945, 11.57043647, 5.90127105, 18.03122292
11.31370850, 4.57711700, 10.88347371, 10.61720302, 36.18943216, 14.02319507, 6.67645115, 16.96761621
9.36349294, 5.26782688, 10.94303431, 9.97246208, 33.62402415, 12.03744159, 6.48845128, 17.24311457
9.20733403, 4.99749937, 11.53581380, 9.70953140, 31.22138690, 9.33809402, 6.62193325, 15.66365219
9.29247007, 5.19374624, 12.06751839, 9.79030132, 25.56804646, 11.00227249, 6.25099992, 16.17173460
6.67270560, 4.90153037, 10.19436119, 8.99305287, 29.36877594, 11.96870920, 5.24642736, 14.83492501
5.95608932, 4.40454311, 11.90903019, 9.19918475, 28.02320467, 11.05780268, 6.67645115, 12.44889553
7.75403121, 4.79583152, 12.15318888, 9.97997996, 30.36033597, 7.64852927, 8.41724420, 13.99196198
7.52495847, 4.66368953, 10.15504801, 9.58253620, 36.31287650, 9.20326029, 8.70631954, 15.83192976
8.14401621, 3.39484904, 11.50977845, 9.27766134, 33.29714702, 9.64883413, 6.52111954, 17.39540169
7.93725393, 3.38378486, 11.06571281, 10.16120072, 35.68683231, 8.32015625, 6.12984502, 18.04023281
5.31036722, 3.58120092, 8.17006732, 9.89191589, 41.59386974, 9.71982510, 8.34715520, 17.80870574
6.11146464, 3.24807635, 7.51332150, 9.15832954, 43.45025892, 9.03188795, 10.58772875, 16.82706154
7.26636085, 3.32415403, 8.57175595, 9.15559938, 37.07155244, 6.60113627, 8.92608537, 15.80743496
8.27647268, 3.65376518, 10.01623682, 10.49285471, 23.05753673, 7.03562364, 4.39317653, 16.36230424
7.84378735, 4.36463057, 10.54514106, 10.93389226, 21.87292847, 8.49705831, 5.33385414, 15.83035060
6.49615271, 4.72228758, 10.44150372, 9.68891119, 24.06293831, 8.68043778, 6.43428318, 15.77577256
6.22093241, 5.22015325, 12.86176504, 9.97622173, 26.90724809, 9.49868412, 5.45435606, 18.99276178
6.61059755, 4.72228758, 12.85301521, 10.14273139, 29.88519700, 9.56033472, 5.52946652, 18.81820927
7.51831098, 3.99687378, 11.02950588, 10.43312034, 30.05786087, 8.47053717, 7.93410360, 16.83003268
8.02651855, 3.90512484, 9.43663075, 10.17103731, 28.14915629, 8.12249962, 8.08548081, 16.47346351
6.40507611, 3.25192251, 7.12741187, 9.00832948, 29.89774239, 7.36545993, 7.08343137, 16.07326974
6.01248701, 3.50356961, 8.64146978, 9.05262393, 35.20724357, 7.30068490, 6.84835747, 17.15663137
6.94442222, 3.74165739, 8.11326075, 9.24662100, 33.45332569, 7.09048658, 6.04979338, 14.97915218
6.14003257, 3.65034245, 6.84105255, 10.28955781, 32.72384452, 7.02673466, 4.85798312, 14.28810694
7.59275971, 4.04042077, 8.96660471, 10.92245394, 33.79053122, 8.82043083, 5.79223618, 14.39704831
7.70227239, 4.27784993, 10.60424443, 10.47138959, 34.00404388, 9.18286448, 6.85930026, 15.43372930
6.34822810, 4.45533388, 10.13163363, 9.28170243, 34.51195445, 7.45150991, 5.88854821, 14.91978552
5.98122061, 4.61519230, 11.40942593, 8.79488488, 31.60893861, 7.06045324, 5.50454358, 15.21758851
5.73367247, 3.63318042, 11.81207010, 8.07000620, 31.99921874, 7.90885580, 5.94138031, 18.72364815
6.12576526, 4.04042077, 10.75639345, 7.75725467, 33.38188131, 8.04518490, 6.27893303, 15.14017833
6.88839604, 4.90407993, 10.33682737, 9.40744386, 32.37977764, 7.34506637, 5.93927605, 14.26183719
7.44815413, 3.80131556, 10.25914226, 10.23352334, 29.56898713, 6.43428318, 5.37587202, 17.75739283
6.68954408, 3.93064880, 11.22497216, 9.45647926, 27.97275460, 6.16238590, 6.14817046, 17.83605898
6.80624713, 5.03239506, 12.58173279, 8.75214259, 31.12996948, 8.01093003, 6.30674242, 18.20233502
8.18840644, 22.30302670, 43.82892880, 18.01943395, 33.60617503, 9.95740930, 7.60756203, 18.51620912
9.75320460, 23.73868151, 50.04323131, 20.16680441, 34.46229824, 12.33794959, 8.81901355, 18.94927439
10.60188662, 13.51665639, 36.05343257, 13.89874095, 45.54832598, 13.67570839, 7.28868987, 18.03122292
11.26720906, 13.42479050, 38.65714682, 13.52497689, 44.17182360, 15.64688467, 6.04979338, 16.62678562
10.40913061, 10.59126999, 35.79036183, 13.64459600, 29.08736839, 14.90469725, 8.07000620, 14.87111294
8.94147639, 8.34116299, 29.00172409, 14.93987952, 34.79583308, 12.43483012, 9.50000000, 13.29097438
8.74785688, 8.88678795, 28.61599203, 16.11210725, 45.10570917, 11.07023035, 8.67035178, 18.15006887
7.04095164, 8.22192192, 23.54570024, 13.10724990, 48.31847473, 7.89303490, 7.12214855, 19.85258170
7.10985232, 6.98569968, 19.70532923, 12.18503180, 41.64132563, 12.70334602, 7.27323862, 17.93320942
9.31262584, 7.45654075, 19.58443259, 12.88603896, 32.29357521, 13.26272973, 7.63708059, 17.38821440
8.58195782, 6.75647837, 16.73469450, 11.74521179, 35.50070422, 10.27131929, 6.98212002, 20.18724845
7.90569415, 6.12372436, 15.38587014, 11.35671607, 35.94127154, 11.40175425, 5.96447818, 18.69826195
8.11788150, 6.52303610, 15.94365077, 10.87083253, 31.51705887, 10.75639345, 5.43369119, 15.32073758
7.28010989, 5.41756403, 12.56483187, 9.71081871, 33.09456149, 8.09783922, 5.72276157, 15.34763825
6.30277717, 5.42908832, 13.86271979, 10.08464179, 35.82527041, 8.22800097, 5.98122061, 13.95528574
5.93085154, 7.60591875, 16.51514456, 13.62259153, 32.67682665, 10.81780939, 6.50960828, 16.44612416
7.42798761, 7.36715685, 15.88238017, 13.68301867, 30.70545554, 11.49456393, 6.29483916, 17.20465053
6.59355746, 6.34625874, 15.77101772, 11.03063915, 33.11117636, 14.57823720, 7.53491871, 14.82059378
6.50576667, 5.82451715, 13.09389171, 9.76857206, 35.37760591, 15.78923684, 7.25258575, 13.25141502
6.72867000, 5.16720427, 14.68076973, 9.57078889, 33.12249991, 11.46080276, 6.68580586, 15.42562803
6.63701740, 5.14052526, 13.85550432, 8.89100669, 26.75350444, 7.90569415, 7.92622230, 16.22729183
7.63053078, 5.20816666, 12.20962735, 7.47328576, 34.09508762, 8.65447861, 7.02317592, 16.40883908
6.80441033, 5.24642736, 13.23914650, 9.29650472, 36.22533644, 9.75320460, 6.53069675, 15.81059771
6.32653144, 4.28077096, 12.30243878, 9.86154146, 31.93548183, 12.18195387, 7.00892288, 13.62901317
7.34846923, 3.83405790, 11.86802427, 9.71210585, 31.71237929, 11.17027305, 6.12372436, 13.95707706
7.37394060, 4.51109743, 12.65009881, 9.52759151, 36.86631254, 10.35615759, 5.31742419, 12.12435565
6.86294397, 4.71168760, 12.60257910, 8.96660471, 35.59283636, 12.75637096, 7.73627817, 14.43433407
6.97674709, 3.95284708, 11.59202312, 9.86027383, 34.57853380, 10.78192933, 7.40101344, 17.04992669
6.73795221, 3.11849323, 10.24573082, 9.79795897, 38.03879599, 7.85015923, 5.36656315, 16.51741505
6.63701740, 4.51386752, 10.78192933, 9.73909647, 33.24379641, 9.15013661, 6.28291334, 18.02082129
7.17983287, 4.65295605, 9.66566087, 9.58514476, 32.83709792, 9.67341718, 6.27096484, 17.29233934
7.04627561, 3.64348734, 9.47892399, 8.33666600, 33.68679266, 9.43530604, 8.09629545, 17.61036627
7.42125326, 4.59891292, 11.69722189, 8.48969964, 29.10455291, 9.04433524, 9.18830779, 16.41112428
6.92459385, 4.69840398, 11.21494539, 8.83742044, 26.75630767, 9.14740400, 7.38241153, 12.38850273
6.24699928, 4.35028735, 10.89151046, 9.76985159, 27.00509211, 8.99861100, 7.60263112, 14.55249120
8.30361367, 4.49444101, 10.84435337, 9.64494686, 29.45547487, 8.81759604, 9.07331252, 14.25657743
8.97217922, 4.15932687, 10.39591266, 8.59214758, 32.24089019, 10.24573082, 8.66890997, 15.40454478
7.85015923, 4.18628714, 10.34408043, 8.56738000, 37.57958222, 10.82474018, 7.64689479, 15.22415843
9.89823217, 5.69429539, 14.19242756, 8.19603563, 35.98506635, 11.12766822, 7.91359590, 12.73479486
10.91673028, 8.10555365, 19.75601174, 9.81580358, 36.41359636, 10.18209212, 7.98279400, 13.55359731
8.69913789, 7.42125326, 17.38246243, 10.38026975, 38.06244869, 9.82725801, 6.62004532, 14.71733672
7.07283536, 4.76707457, 11.55638352, 11.15795680, 33.87329331, 10.61720302, 7.00713922, 16.69056620
7.95770067, 5.23927476, 14.05880507, 11.55854662, 36.27533597, 8.51469318, 7.18331400, 14.52669956
9.33273808, 4.78016736, 13.35758212, 9.72882316, 32.00898311, 7.45486418, 6.37965516, 13.71768931
9.65919251, 3.90832445, 10.97041476, 10.81896483, 29.79932885, 9.05676543, 8.71492972, 16.69880235
9.23850637, 4.87852437, 11.96035117, 11.12092622, 31.59272068, 10.05733563, 8.79488488, 19.39780915
8.01405016, 5.30094331, 15.37774366, 9.32737905, 32.55610542, 11.69187752, 6.45561771, 19.59655582
7.26636085, 4.90407993, 15.09387293, 8.57175595, 35.44220648, 11.23387734, 6.76202632, 16.74141571
7.35357056, 5.22494019, 12.06441047, 8.11171992, 31.38948869, 8.01249025, 7.45150991, 14.24254191
8.34865259, 4.66100847, 10.20906460, 8.33066624, 29.56898713, 10.08588122, 7.18505393, 15.57481942
9.36616250, 4.39317653, 8.74785688, 8.33816527, 29.21942847, 11.09166354, 6.59924238, 16.37223259
7.88194139, 5.13565965, 10.13903348, 9.09807672, 31.89278915, 8.27496224, 7.08519583, 17.97289626
7.58617163, 4.08656335, 9.69407035, 9.44325156, 33.76795819, 8.69913789, 7.35527022, 20.02186305
7.99843735, 3.46049129, 9.54856010, 9.26282894, 34.03637760, 9.45383520, 6.80624713, 18.71830655
5.94138031, 4.13823634, 9.82089609, 10.66653646, 31.46386817, 10.80277742, 7.08343137, 17.80730187
6.10122938, 4.04969135, 10.43431838, 12.28515364, 31.75649540, 11.07925990, 6.95341643, 16.12916613
6.43428318, 4.11400049, 14.12179167, 11.80042372, 34.61610897, 9.71982510, 5.63249501, 15.30604456
7.23360215, 4.56344168, 14.90050335, 9.08432716, 30.86340876, 8.11171992, 4.67707173, 15.35903643
8.12403840, 5.29858472, 14.25920755, 8.19145897, 30.52867504, 7.64525997, 5.23211238, 13.42572158
7.59440584, 5.87792480, 14.43693181, 9.47496702, 29.23781798, 8.99444273, 4.92442890, 13.86812893
6.82458790, 7.07106781, 16.98307981, 12.07890724, 29.05512003, 8.66602562, 5.86728216, 14.17391971
6.37573525, 6.78601503, 16.45372298, 11.70256382, 34.52897334, 8.39344983, 6.88113363, 14.18802312
5.90973773, 5.51135192, 14.14832146, 11.72817121, 31.64885464, 9.43265604, 7.72657751, 15.54187891
5.60357029, 6.58976479, 14.97831766, 12.11300954, 25.23291501, 8.83883476, 8.72353140, 18.86133611
6.26897121, 6.55553202, 14.65520385, 9.81198247, 28.88684822, 7.50000000, 7.67951821, 21.00833168
6.48266920, 5.26070338, 12.85398771, 11.36991645, 35.50492924, 8.47053717, 7.92464510, 17.25108692
6.85747767, 4.85025773, 10.23962890, 12.12641744, 34.29066928, 8.37555968, 8.00312439, 14.46634024
6.41287767, 4.35315977, 9.70051545, 9.16105889, 27.12793763, 7.71524465, 7.01605302, 14.56880228
5.44288526, 4.66100847, 10.59598981, 10.35132842, 29.58082149, 7.23532999, 7.42462120, 12.79355306
5.62583327, 4.34453680, 9.58514476, 11.40504274, 31.38311648, 6.41677489, 7.97339326, 13.55175265
6.03324125, 3.55668385, 9.06366372, 8.77353976, 33.93302226, 7.81344994, 8.56738000, 16.38291793
6.36396103, 3.92109679, 9.67600124, 7.12916545, 34.28848203, 9.05676543, 7.64198927, 15.65407295
5.62138773, 3.50713558, 8.64436232, 8.92048205, 33.96910361, 8.38301855, 5.67670679, 13.85189518
6.07247890, 2.91976026, 8.69770085, 10.29805807, 33.33279166, 7.79102047, 5.35490429, 14.67310465
6.48845128, 3.25192251, 9.65660396, 9.18966811, 33.96027091, 8.25984261, 5.91819229, 16.16013614
5.60580057, 4.13823634, 12.54093298, 9.40345681, 38.71014079, 8.66746791, 7.01783442, 15.24631103
4.97744915, 4.75131561, 17.11066919, 11.02837250, 30.88769982, 9.52234215, 7.02673466, 11.72923697
5.01497757, 4.39886349, 16.68457371, 11.38200334, 28.19929077, 10.20539073, 6.74351540, 12.88215820
6.03324125, 3.92746738, 14.41613679, 11.51412176, 36.30461403, 9.34879671, 7.90885580, 17.96454842
7.47997326, 3.79802580, 13.26367219, 9.86534338, 35.61460375, 8.15628592, 7.50999334, 18.34802442
7.88352713, 3.82099463, 9.73781290, 7.99218368, 31.19815700, 8.80766711, 6.71006706, 16.42102311
7.12039325, 4.03112887, 8.91767907, 9.17877988, 29.90192302, 7.44815413, 6.37769551, 16.88564479
6.57076860, 4.42436436, 8.91627725, 9.10906142, 31.27259183, 6.91556216, 5.74456265, 18.58964766
6.79153885, 4.15632049, 9.42072184, 9.77368917, 29.83244878, 8.66458308, 5.89279221, 21.76465024
7.18853253, 3.23651047, 9.35013369, 11.98227858, 32.33148620, 7.37394060, 5.49545267, 23.15275362
7.55479980, 4.56891672, 11.66833321, 11.64581470, 32.14887245, 7.00892288, 6.14410286, 19.12981965
7.33995913, 5.75325995, 14.83071138, 10.94760248, 28.91669068, 10.89839438, 7.98279400, 16.79955357
6.25299928, 5.07937004, 13.17858111, 10.40672859, 32.93516358, 12.44286944, 10.40072113, 17.08434956
8.39344983, 5.27730992, 11.16803474, 9.41408519, 34.25273712, 10.75639345, 11.15907702, 19.82359705
10.27496959, 5.69209979, 14.08367850, 10.43192216, 33.67417408, 9.77113095, 10.17472358, 21.61596632
11.54014731, 5.06705042, 14.42393844, 11.06006329, 33.69606802, 11.47388339, 10.75174404, 19.02564059
10.48332008, 4.92442890, 9.87041033, 11.06006329, 32.96475390, 11.94257091, 9.64883413, 16.66808327
10.02372186, 4.55796007, 7.18505393, 10.32956921, 31.18853956, 10.98407939, 7.88828245, 17.68544599
10.11805317, 4.35315977, 8.75357070, 9.45119040, 27.39023549, 11.40065788, 9.09120454, 18.89775119
8.52056336, 3.66742416, 9.07606743, 11.10067566, 29.81526455, 11.45643924, 9.81070844, 24.76741811
7.87876894, 3.04138127, 9.74166310, 11.45098249, 32.64391214, 11.37760959, 8.12096053, 25.95621313
9.83488688, 3.42052628, 10.43910916, 9.75448615, 34.69185783, 13.34447451, 7.40270221, 17.07922715
12.44588285, 3.20936131, 8.86566410, 10.82474018, 33.18132005, 14.61335006, 9.02496537, 20.31317307
11.02837250, 3.22102468, 7.61413160, 11.11080555, 36.47601952, 13.02017665, 8.76641318, 22.26656687
11.08038808, 3.92428337, 8.92468487, 11.01476282, 37.49099892, 9.57209486, 8.24621125, 17.43344487
11.36661779, 3.86328875, 7.60427511, 11.45316550, 33.70200291, 9.47628619, 7.82304289, 15.00666519
9.20190198, 3.19765539, 4.56618002, 10.95445115, 38.17361654, 11.39078575, 6.66520817, 18.09143444
8.70488369, 3.35782668, 4.35315977, 9.45912258, 35.05281729, 12.94604187, 6.07865117, 19.52754465
8.97078592, 4.26321475, 6.71751442, 9.26822529, 33.30915790, 13.05373510, 7.54983444, 13.74045123
8.21431677, 4.07737661, 7.77817459, 11.18816339, 36.56056619, 10.41153207, 7.92622230, 13.93377192
8.28552955, 3.94017766, 7.22322643, 11.82159042, 32.73033761, 7.77013513, 8.15168694, 16.86638669
7.92779919, 5.27257053, 9.24797275, 11.90168055, 32.95754845, 7.17112265, 7.80864905, 15.71941475
8.03585714, 5.72276157, 11.06458314, 11.83744060, 32.29938080, 10.52971984, 7.52163546, 18.96312211
9.64105803, 4.85540935, 10.80277742, 10.50238068, 25.31896522, 12.90929897, 8.84590301, 21.34888756
10.12299363, 3.64691651, 9.86661036, 7.98749022, 32.77117636, 11.78028013, 10.84665847, 20.73041244
9.00416570, 4.06201920, 12.81015222, 8.78635305, 38.54283332, 8.54400375, 9.51183473, 19.52562419
7.17460800, 4.22492603, 12.78768939, 11.54772705, 33.38000899, 13.37908816, 5.96238207, 17.30245647
6.78969808, 3.46410162, 10.81665383, 11.12542134, 28.31209989, 14.23464085, 7.12214855, 16.08570794
7.04982269, 4.24558594, 11.96035117, 12.22088377, 37.01216016, 13.30131572, 7.49166203, 16.21650394
7.87242021, 3.99061399, 9.62029106, 12.21679172, 37.73161804, 14.64667198, 7.20590036, 15.92717803
8.60232527, 3.68442669, 9.64624279, 8.79914769, 30.48155180, 11.25388822, 6.90470854, 18.34938691
8.91767907, 3.72155881, 9.89191589, 8.86143329, 36.85037313, 11.22385852, 7.18331400, 20.05118450
9.37683315, 4.23674403, 10.09331462, 11.71964163, 34.62008088, 12.45190748, 7.44815413, 18.74899997
8.57175595, 4.94469413, 11.85326959, 11.54014731, 30.20389048, 10.87083253, 7.44815413, 16.52498109
10.04863175, 6.41482658, 16.21881623, 10.89495296, 34.78972549, 10.02621564, 7.86924393, 14.92062331
11.33909167, 18.31938864, 40.43018674, 19.18137117, 33.33091658, 15.45477273, 20.54446397, 21.55806114
9.49078500, 21.50465066, 47.13915570, 22.49444376, 28.38265315, 29.35983651, 24.60995733, 25.13364279
10.16980826, 17.01176064, 45.73674671, 19.96809956, 38.86257840, 33.95401302, 18.46076921, 20.15254326
9.39148551, 14.82649655, 45.63989483, 17.58905910, 38.06474747, 31.31932311, 15.93580873, 15.45639026
6.87568178, 11.62755348, 34.87047462, 14.94406237, 26.55466061, 30.02165885, 14.24868415, 17.32122975
8.11326075, 10.65129100, 29.95204501, 14.21530865, 29.53430209, 26.35384222, 15.84613518, 20.57972303
9.54725091, 9.74422906, 29.00905031, 13.67113748, 31.91277174, 25.56902423, 22.08449682, 19.50961302
9.77880361, 7.73304597, 25.67440360, 13.43502884, 41.31464631, 27.67851152, 22.21654789, 17.33421472
8.67035178, 7.60920495, 19.97498436, 12.27293771, 36.09778387, 27.71281292, 16.27651683, 20.11591410
9.05400464, 7.13617545, 14.14832146, 10.95445115, 29.81945674, 35.25017730, 14.32567625, 20.10099500
9.41939489, 6.60302961, 15.84613518, 11.13103769, 37.10491881, 34.20233910, 14.31258188, 16.79732122
8.56883889, 6.03324125, 17.47927344, 10.47735654, 35.37654590, 20.81225600, 13.52867325, 18.34325489
7.15017482, 5.47950728, 16.33095221, 10.23962890, 32.64927258, 18.10179549, 13.43688952, 21.11634438
6.79889697, 4.00624512, 13.11106403, 12.36224090, 36.79775808, 20.56514041, 14.73261688, 16.87453703
7.34846923, 3.15039680, 8.59069264, 13.51295675, 37.88238377, 20.03559333, 13.46198351, 15.13852701
10.10198000, 4.37607130, 10.38508546, 11.79830496, 29.44613727, 17.94714462, 8.86566410, 21.16778212
10.94189198, 4.19523539, 10.52734534, 10.35857133, 24.66525897, 18.88716495, 12.01041215, 19.95808107
9.47496702, 4.04042077, 10.17595204, 9.47628619, 33.05941621, 24.81733265, 16.60948524, 18.04577513
8.04984472, 4.75657440, 9.86914383, 11.33468129, 44.77415549, 23.11655251, 15.48951258, 19.01644026
7.08343137, 4.04042077, 8.82326470, 12.24132346, 42.26020587, 17.64511264, 10.59598981, 17.10920805
8.87130205, 4.69308001, 10.79814799, 11.67154660, 31.20576870, 16.73320053, 8.12711511, 16.52271164
7.87876894, 4.79322438, 10.68760965, 12.79257597, 38.36111312, 11.55097398, 7.00713922, 16.85155779
5.47265932, 4.19523539, 8.81192374, 14.94406237, 41.92165312, 14.49396426, 8.82468130, 16.52876281
7.41114026, 5.09901951, 10.35615759, 13.65741557, 36.03470549, 17.47068974, 9.41541290, 17.13767779
7.22322643, 4.73814310, 11.05893304, 11.19374826, 32.28776858, 15.06403001, 7.81664890, 16.74664145
4.54422711, 4.18330013, 9.78774744, 13.48332303, 31.30894441, 12.76322843, 6.97853853, 15.37367881
8.18687975, 5.12591455, 12.37032740, 13.68393218, 36.54346727, 11.83427226, 6.75647837, 16.14388429
9.65271982, 5.38516481, 14.71903529, 13.00288430, 36.29462770, 12.70236199, 7.32290926, 16.74514855
9.93730346, 4.82441706, 13.53698637, 12.19221063, 29.35557869, 12.88021739, 7.13967786, 20.92904680
9.19510739, 4.50000000, 11.66511894, 11.18257573, 25.79631757, 12.10061982, 6.99464081, 21.64024029
6.46722506, 3.88265373, 11.01816682, 11.16579599, 32.06477818, 14.17303778, 7.26464039, 17.76161592
9.60078122, 6.12780548, 14.80878118, 10.69345594, 33.72424944, 14.58595215, 7.52828002, 19.73258726
10.54395561, 6.74536878, 15.42967919, 10.25670512, 39.24187814, 14.08722826, 8.33666600, 20.93621265
7.66974576, 4.16533312, 11.42037653, 9.67341718, 43.17319770, 13.60514609, 8.04984472, 18.76965636
8.23255732, 3.73496988, 12.38143772, 11.18816339, 36.35312916, 11.38310151, 5.97285526, 19.60165809
10.00374930, 4.82182538, 13.22781161, 13.59411637, 33.30615559, 11.01816682, 7.25603197, 21.79678875
9.23579991, 5.64800850, 10.75871740, 13.57387196, 37.07863266, 12.78182303, 8.67611664, 18.12525862
9.80943423, 5.34322000, 9.88433103, 12.95183385, 39.50063291, 12.74754878, 8.88397434, 18.15901980
10.33077925, 4.92950302, 10.62779375, 12.20553153, 40.79920342, 12.43784547, 8.83176087, 19.14418972
8.97914250, 5.81807528, 12.72202814, 9.44722181, 36.16939314, 12.12332463, 8.67323469, 14.60136980
7.86765531, 6.00832755, 13.58123706, 9.41674041, 28.19574436, 12.73970172, 8.94706656, 15.36391877
6.77679865, 5.03736042, 11.45643924, 10.54988152, 31.83669267, 16.07404741, 7.79743548, 13.73772179
6.24699928, 4.34165867, 10.17963654, 9.56425637, 35.31819644, 15.54027027, 7.35866836, 12.23212982
7.45486418, 4.93963561, 12.16141439, 11.89852932, 35.77184647, 13.09675532, 8.41724420, 16.18873065
8.00780869, 4.51386752, 10.69929904, 12.42074877, 34.55141097, 13.90233793, 7.93410360, 16.70553800
10.42592922, 3.73162163, 7.59934208, 9.44722181, 29.51609730, 14.33701503, 6.74536878, 22.32319422
10.00499875, 4.00624512, 9.79540709, 10.83743512, 29.96456240, 12.79648389, 6.42066975, 21.97327923
8.06690771, 3.51425668, 9.95489829, 10.86278049, 36.02013326, 11.38859078, 6.66333250, 16.11521021
8.19603563, 2.52487623, 7.31778655, 8.58632634, 38.82267379, 13.35571039, 6.76941652, 17.56060933
7.22322643, 3.01662063, 5.16962281, 10.78308861, 38.63418176, 14.76736266, 6.22294143, 18.29754082
8.67323469, 3.29013678, 5.18411034, 11.94152419, 35.98749783, 13.02689526, 6.85200701, 19.21587885
9.05400464, 3.06594194, 4.69308001, 10.81896483, 37.73824320, 12.25561096, 7.60263112, 18.32484652
7.43807771, 3.46410162, 4.64758002, 10.37304198, 41.13605475, 12.76910334, 8.54254061, 15.83745560
5.76844866, 3.26726185, 4.79061583, 9.39547764, 39.55186468, 11.34350034, 10.11805317, 12.23621674
5.72931060, 3.11849323, 4.66100847, 9.86280893, 36.92356971, 11.97497390, 9.52102936, 10.47377678
7.88194139, 3.44601219, 5.29150262, 9.98874366, 30.92612164, 11.23943949, 7.02139587, 12.10681626
8.16700680, 2.75227179, 4.63950428, 9.23173873, 33.87956611, 8.42466617, 7.23014523, 14.98916275
7.88986692, 2.55929678, 3.60208273, 9.03880523, 40.16559473, 12.72497544, 7.61248974, 16.02576051
9.04848054, 3.48209707, 5.29386437, 8.77353976, 37.50499967, 16.27114010, 7.56967635, 18.29617446
9.83107319, 5.49317759, 13.05565012, 11.02383781, 38.98813922, 15.14017833, 8.72926114, 19.29702050
8.71636392, 6.16441400, 16.59066002, 11.24388723, 39.47214208, 13.13868334, 9.71081871, 18.47092310
6.60870638, 5.41294744, 15.78131807, 12.00624837, 36.16870194, 13.26744135, 10.11805317, 17.03452377
7.23878443, 4.59347363, 13.96424004, 12.28718845, 32.35699306, 15.23236685, 8.33366666, 15.15585695
8.52496334, 4.72757866, 12.42477364, 10.52259474, 25.95476835, 14.20827224, 5.69649015, 15.59166444
7.96398142, 5.08183038, 11.52280348, 10.74360275, 31.13157561, 10.28834292, 8.70775516, 13.35383840
7.37394060, 4.44128360, 11.80889495, 10.15997047, 34.18881396, 8.94147639, 9.27496631, 13.11678314
8.33066624, 3.50713558, 10.68293031, 8.26589378, 28.44424371, 10.83051245, 8.24014563, 15.49193338
7.93567892, 2.43413229, 7.09401156, 10.34045454, 30.81314654, 14.09432510, 8.60523097, 19.70406050
8.57175595, 3.21714159, 9.42735382, 10.30169889, 35.06387029, 13.39589489, 6.99106573, 17.71157813
9.08295106, 4.57711700, 11.08038808, 8.34565755, 31.17891916, 11.79724544, 8.72209837, 16.58764601
10.51665346, 5.06458290, 11.50108691, 9.92219734, 38.44053850, 13.80036231, 9.79285454, 19.89535122
10.38267788, 5.50681396, 12.71318214, 10.68410034, 39.16343958, 13.85640646, 7.39594483, 14.52411787
7.30753036, 5.16236380, 11.68866973, 10.95673309, 30.40970240, 13.01729619, 6.01456565, 13.31352696
7.12039325, 3.82753184, 9.16105889, 10.75290658, 28.44116735, 12.36122971, 7.15891053, 18.95323191
8.33516647, 3.59165700, 10.74011173, 10.55106630, 30.72621031, 9.83361582, 8.87271097, 20.88181027
12.04989627, 3.11849323, 10.63014581, 9.10082414, 30.64922511, 12.25765067, 8.66025404, 18.24623249
12.66885946, 3.27490458, 8.23255732, 8.83459111, 35.40727326, 15.62049935, 6.53643634, 16.73021219
9.09670270, 3.65034245, 8.27194052, 8.13480178, 36.24948275, 16.68906828, 6.50192279, 16.58613879
7.91043614, 3.14642654, 7.35696948, 8.44393273, 24.12104890, 15.28070679, 7.85493475, 14.62361105
7.65179717, 3.47850543, 6.75277721, 10.17963654, 24.25695776, 10.10940156, 7.94512429, 13.82660479
7.53989390, 3.71819849, 7.84697394, 10.19190856, 29.12172728, 11.14450537, 7.56802484, 13.02593567
8.18535277, 3.75499667, 8.94007830, 10.12546295, 36.50205474, 13.86632612, 9.92093746, 19.78572718
7.35527022, 4.71433983, 10.29441596, 9.24391692, 34.43036451, 12.56483187, 9.80051019, 22.95593605
6.56124988, 4.88620507, 11.08264409, 10.29927182, 35.97533878, 9.46572765, 5.94138031, 19.05846269
6.34034699, 4.01559460, 11.25610945, 12.61447581, 42.79865652, 10.77497100, 6.04152299, 16.03433815
6.14003257, 3.51781182, 10.08092258, 12.17579566, 42.43495022, 11.79194640, 8.65158945, 13.41547614
7.05159556, 3.30907842, 7.80384521, 10.28955781, 41.57403036, 11.93000419, 8.48969964, 16.77050983
7.77174369, 3.29772649, 8.59214758, 13.62259153, 37.93514202, 12.38244725, 8.98331787, 23.90292869
9.05262393, 3.01247407, 7.70551750, 13.75772510, 33.76980900, 9.78647025, 9.52759151, 26.10076627
8.76213444, 2.84604989, 7.51165761, 11.66190379, 32.37244198, 11.48041811, 7.91517530, 20.01499438
6.61059755, 3.07001629, 8.94007830, 10.70747403, 38.31155178, 12.96823041, 8.68331734, 15.69155824
5.69649015, 2.93683503, 7.55810823, 8.80056816, 33.76277536, 11.62540322, 8.68187768, 18.24212159
6.07453702, 3.27871926, 7.64362479, 10.64542155, 24.52396787, 9.93478737, 6.43039657, 16.42863354
6.17454452, 3.46049129, 7.41788380, 10.07968253, 34.17308883, 8.28854631, 7.88511255, 17.14788617
6.22294143, 3.13049517, 6.57837366, 8.27345152, 41.02377360, 10.12793167, 8.12865302, 17.91926338
6.36396103, 2.81957444, 6.58976479, 10.16612020, 34.77966360, 10.00374930, 5.56776436, 13.41174858
6.23498196, 2.53968502, 5.30565736, 10.22619186, 31.25659930, 12.46495086, 5.85662019, 16.66208270
6.67270560, 3.08625987, 6.67645115, 10.35495051, 28.59982517, 12.97593927, 6.93541635, 19.43579173
7.05159556, 3.17411405, 7.40439059, 10.87772954, 26.99953703, 11.05441088, 7.41788380, 18.45535153
7.83581521, 2.52982213, 6.49037749, 9.33139861, 31.33807588, 11.84483010, 7.73142936, 21.68178959
8.27949274, 3.24422564, 7.93882863, 10.58772875, 34.79080338, 9.82980163, 6.28490254, 22.10033936
8.58341424, 4.39886349, 9.48024261, 11.73349905, 35.30793112, 12.00000000, 4.56618002, 20.37032155
9.67600124, 4.31566913, 8.97914250, 13.09580085, 32.91162409, 11.61464593, 6.61626783, 21.66967928
9.28574176, 3.35782668, 7.53989390, 18.54454098, 41.80669803, 12.16141439, 8.63712915, 18.72298053
10.13410085, 3.92428337, 7.44143803, 19.65451602, 43.68323477, 14.38662573, 10.68527024, 18.94333656
9.81707696, 4.10487515, 7.41788380, 13.61065759, 37.57193101, 11.42803570, 9.79157801, 19.44350791
6.58976479, 3.31285375, 6.17454452, 9.53808157, 36.25293092, 8.50294067, 6.82641927, 16.15317306
5.55652769, 3.27871926, 6.84105255, 9.93856126, 34.69474024, 8.87271097, 7.41956872, 16.73768204
7.11161023, 3.01662063, 7.67300463, 10.61720302, 32.61824643, 9.52890340, 7.44983221, 21.17250576
7.34676800, 2.85482048, 7.37733014, 10.77845072, 36.69741135, 9.91715685, 5.84166072, 20.05554786
6.77864293, 3.43511281, 7.97339326, 11.94675688, 40.40049505, 11.77709642, 6.52686755, 13.71222083
7.72495955, 4.20713679, 9.14603739, 11.75159564, 36.93135524, 12.07476708, 6.66708332, 14.59537598
8.44245225, 3.98748041, 10.16857906, 9.86027383, 34.28957568, 11.16019713, 5.51815186, 19.88215280
8.41872912, 3.64691651, 9.00416570, 11.12542134, 42.35357128, 10.07099796, 7.00713922, 23.63207566
7.17112265, 3.55668385, 7.63544367, 11.04762418, 41.92880871, 9.33139861, 6.77310859, 21.92715212
7.05513997, 3.20936131, 8.03896760, 9.80306075, 34.14601002, 7.90727513, 7.00535509, 18.35074930
8.00468613, 3.52491135, 7.72819513, 12.91994582, 43.20011574, 8.58487041, 6.76202632, 15.32807881
7.96398142, 3.89230009, 7.50832871, 14.73685855, 43.02441168, 9.69278082, 5.76844866, 17.05798933
7.85970737, 4.11400049, 6.94622199, 14.99583275, 34.28374250, 8.82468130, 6.17656863, 20.59793679
7.19027120, 3.62629287, 7.95927132, 13.52682520, 36.28188253, 8.91767907, 6.11759757, 21.42253486
7.02851336, 3.93382765, 9.26552751, 10.52259474, 32.26414419, 8.92468487, 7.26291952, 19.25811517
6.54217089, 4.09267639, 8.24166245, 11.28716085, 26.29876423, 7.87559522, 7.07283536, 15.39399233
5.71839138, 3.09434969, 12.59067115, 11.45316550, 27.42626478, 7.51831098, 6.10941896, 17.37742789
6.41872261, 3.08220700, 11.86275685, 10.57118726, 37.93184678, 7.70551750, 6.09918027, 18.28182157
7.19027120, 3.20936131, 5.98957428, 9.82852990, 36.58346621, 7.62397534, 6.41677489, 17.36807416
8.47791248, 3.62284419, 7.02673466, 11.60926354, 30.79569775, 8.67467579, 6.60492241, 19.07288651
9.81325634, 4.10487515, 8.70488369, 12.97786577, 35.39102994, 9.21004886, 6.72867000, 17.66918221
9.32871910, 3.69120577, 9.17196816, 10.46422477, 33.35978117, 8.46020094, 8.58632634, 18.82485060
8.23103882, 3.44238290, 9.52496719, 8.60523097, 32.51345875, 8.27798285, 7.84219357, 19.09450183
7.66811581, 4.43001129, 12.45090358, 11.57583690, 39.23295808, 11.51954860, 6.71006706, 17.88994131
8.26891770, 4.46094160, 12.38446608, 12.92671652, 46.19388488, 13.75863365, 9.34879671, 19.31967909
8.10709566, 3.56019662, 9.87294282, 9.90454441, 45.55930201, 16.77870674, 8.68475676, 17.24818831
7.60591875, 4.04351332, 12.24642805, 8.48086081, 34.77247475, 19.03220954, 12.02497401, 14.39531174
9.62159031, 5.05964426, 15.42724862, 11.08038808, 30.62801006, 16.34778272, 13.19848476, 13.06043644
13.77588473, 5.17928567, 14.86186395, 11.04649266, 41.01310766, 14.08190328, 11.20156239, 18.46009209
13.59871317, 4.42153819, 12.32680007, 9.76601249, 40.77560545, 13.37067687, 11.14338369, 20.60218435
9.35414347, 5.55652769, 14.07302384, 11.88381252, 35.31324114, 14.14920492, 11.55422001, 15.31094380
9.38349615, 6.29086640, 15.09718517, 13.01249400, 39.03043684, 15.98202115, 11.73775958, 14.43086969
9.26552751, 7.04982269, 13.35664629, 11.72817121, 40.66939882, 17.12600362, 10.03618453, 20.71412562
9.57731695, 6.71379178, 12.97690256, 10.68176015, 37.23707830, 17.92972392, 8.65592283, 25.54652618
10.41153207, 5.06211418, 12.68069399, 12.14598699, 33.50820795, 15.03246487, 8.79204186, 24.05722345
9.72239682, 6.09507998, 13.50740538, 11.98540779, 29.78464369, 11.22163090, 9.27631392, 19.93489403
10.73661958, 5.86088730, 12.69350227, 10.72613630, 27.58486904, 9.63457316, 7.86765531, 19.70723218
11.44006119, 5.15751878, 14.54733653, 12.00833044, 30.55486868, 9.95489829, 7.83421981, 18.04161855
10.32714869, 5.00000000, 15.50886843, 12.03432591, 36.12997371, 10.60895848, 8.44245225, 14.72837398
9.44192777, 4.70372193, 11.74627601, 10.71447619, 34.07821885, 9.14330356, 8.56154192, 13.95528574
8.48380811, 5.93506529, 12.90542522, 9.86154146, 24.83092830, 10.17472358, 8.10401135, 12.76518703
8.77211491, 6.27495020, 13.25895924, 12.19836055, 34.55032561, 12.86176504, 7.18157364, 23.40138885
9.47364766, 5.38516481, 10.88232512, 11.64688800, 39.14045222, 11.47279391, 7.44815413, 25.48676127
10.67356548, 5.55202666, 12.76616622, 11.36881700, 30.26383981, 11.07135945, 7.96398142, 18.44654439
11.97601770, 5.79655070, 14.77497885, 13.88794441, 30.62882629, 14.16509795, 7.61741426, 17.62313820
9.91337480, 4.93963561, 13.83022053, 12.80917640, 37.71637575, 13.46848173, 8.94287426, 19.60484634
7.67951821, 4.12007281, 12.90058138, 11.50217371, 38.80496102, 12.05715555, 8.82892972, 20.01624340
9.74166310, 5.11126208, 12.52896644, 13.70127731, 33.30315300, 12.91123542, 10.18086440, 20.84766174
9.02773504, 4.95731782, 11.28494572, 13.70583817, 32.54880950, 12.03640312, 9.83869910, 20.34760428
8.50000000, 4.51386752, 10.86968261, 11.10855526, 38.46329419, 11.89957982, 5.59687413, 17.97428719
9.66307405, 4.68241391, 12.24438647, 10.44629121, 37.72830502, 11.46952484, 6.32455532, 16.84933233
9.71467961, 4.04969135, 13.77769937, 9.43000530, 36.46436617, 11.20490964, 7.79102047, 18.33780249
10.47258325, 4.77493455, 12.50899676, 10.38628904, 35.90612761, 12.79257597, 8.03430146, 18.03260935
9.47496702, 4.82700735, 12.12435565, 10.20416582, 34.54924022, 11.28605334, 7.35357056, 16.27421273
8.11171992, 4.12007281, 12.10681626, 8.91487521, 32.52652764, 8.98053451, 8.39047079, 17.75105631
9.49473538, 4.17432629, 11.35121139, 10.66302021, 27.88816953, 8.43949051, 8.85437745, 19.51345690
9.01526483, 4.94216552, 12.72399308, 10.50595069, 25.84037538, 9.93227064, 7.77656737, 18.16177304
8.32766474, 5.12591455, 11.68118145, 11.59633563, 30.41874422, 10.70980859, 7.70389512, 15.58284313
9.60728890, 4.46374282, 11.98227858, 11.38529754, 34.55792239, 11.46080276, 7.17460800, 14.66287830
8.75214259, 4.27200187, 12.52497505, 10.78540681, 30.18443307, 11.69615321, 7.00713922, 12.15010288
8.30511890, 4.08656335, 12.74754878, 11.78134118, 29.73718211, 9.88433103, 8.95963169, 13.84286820
10.52615789, 4.02802681, 12.59563416, 13.44154009, 35.69033483, 9.75576752, 9.72753823, 14.14036775
11.21605991, 3.94968353, 9.73396117, 13.57663434, 40.05465017, 11.81524439, 8.93028555, 12.49299804
9.67212490, 3.98434436, 8.45133126, 11.32143984, 39.13118961, 11.85010548, 9.31128348, 16.96982616
9.58905626, 3.97177542, 10.48451239, 9.04295306, 31.70764892, 9.44325156, 8.27042925, 17.76935564
9.29112480, 4.08350340, 11.82898981, 7.73950903, 30.00249990, 9.30994092, 5.49772680, 15.40373331
8.25075754, 4.31566913, 10.13656747, 8.82609767, 32.82643752, 10.18331969, 7.85970737, 15.20526225
7.56141521, 4.10487515, 9.29919351, 8.66314031, 29.75273097, 11.25166654, 10.57946123, 15.68916824
7.58122681, 4.07430976, 9.24932430, 9.39813811, 29.62558016, 11.33468129, 9.15286840, 15.56759455
9.67212490, 4.23379263, 8.44985207, 13.33229163, 32.40331773, 10.77961038, 6.56124988, 13.18521900
10.90298124, 4.52769257, 13.50647993, 14.01517035, 37.82228179, 12.06026534, 7.53657747, 18.50202692
10.93503544, 4.88620507, 15.11869703, 11.09391725, 36.06937759, 13.00672903, 7.71686465, 20.44382547
9.80815987, 4.52216762, 11.04536102, 8.97914250, 36.53183543, 12.46394801, 7.98905501, 18.28797419
7.51165761, 3.71483512, 9.67600124, 9.34344690, 34.99821424, 10.82358536, 8.78919792, 15.90675957
6.43622560, 3.86975451, 11.30154857, 10.69579357, 28.80972058, 9.96242942, 8.74642784, 12.69842510
8.64580823, 4.26614580, 12.97112177, 10.05111934, 27.33907460, 10.56527330, 8.78208404, 13.15294644
8.42614977, 4.79061583, 14.41006593, 9.86407624, 26.15387161, 9.87420883, 8.28251170, 12.66787275
7.92306759, 4.56618002, 14.06680490, 9.56425637, 32.80129571, 15.60688950, 8.76498716, 12.65602623
9.65271982, 4.08962101, 10.77961038, 7.60263112, 30.69975570, 15.78527795, 7.65506368, 16.32099874
8.50734976, 3.72155881, 8.45724541, 9.27092228, 33.07415910, 10.66419242, 6.48459713, 17.51142484
7.32802838, 4.37321392, 9.14740400, 11.06345335, 32.47614509, 9.83488688, 7.21283578, 16.09580691
6.58596994, 4.21307489, 8.32316046, 9.73781290, 23.16840521, 8.52936105, 5.69429539, 14.55764404
6.74166152, 3.67763511, 7.29897253, 8.21583836, 37.18097632, 11.48912529, 6.27096484, 11.25833025
6.72495353, 4.61248306, 12.26274847, 10.43192216, 43.87225775, 12.42980289, 6.44592895, 10.72147378
7.13091859, 4.60977223, 12.50799744, 10.64894361, 34.84142649, 10.50951949, 6.63701740, 14.08101559
7.23187389, 5.65243310, 13.14058598, 8.52349693, 26.53158495, 9.01942348, 6.82458790, 13.47404913
6.28490254, 5.88642506, 14.61848145, 9.48815050, 26.20066793, 12.93155056, 6.32455532, 12.42175511
6.16238590, 4.82441706, 11.76860230, 10.85702538, 28.55170748, 15.97185024, 6.50192279, 17.69251254
6.02702248, 4.42718872, 12.77888884, 10.21640837, 30.85085088, 12.72104555, 7.25603197, 18.18722079
7.43135250, 4.16533312, 12.97304899, 9.42337519, 34.45939640, 8.14094589, 6.56505902, 16.62904086
6.90470854, 4.78539445, 10.77497100, 10.58536726, 34.57419558, 9.41142922, 5.84166072, 15.27825252
5.79007772, 4.94469413, 11.63077813, 10.45466403, 29.32447783, 11.53689733, 6.94442222, 15.41265714
6.78232998, 4.21010689, 11.42912945, 9.76985159, 30.72743074, 12.26478699, 6.70261143, 16.83597339
6.34822810, 3.61939221, 9.94359090, 8.59505672, 33.57714997, 11.98436481, 5.88430115, 16.79285562
5.92874354, 3.28633535, 8.62554346, 8.05294977, 35.00392835, 12.18297993, 6.23498196, 17.02498164
6.08687112, 3.96232255, 8.04829174, 9.34745955, 37.16012648, 13.79039521, 6.73795221, 14.42220510
6.95341643, 4.26907484, 8.96102673, 8.14401621, 33.93707412, 13.07096018, 6.90651866, 15.10877229
8.47938677, 3.97492138, 10.13903348, 8.86989290, 27.43173345, 10.92703070, 7.73304597, 15.81059771
8.23862853, 3.99687378, 10.58064270, 12.11197754, 26.78245694, 11.73243368, 7.71038261, 14.26183719
7.40607858, 4.07737661, 9.61769203, 12.86176504, 35.09380287, 12.81795616, 6.71751442, 14.45942599
6.25099992, 3.87298335, 9.87547467, 11.15235401, 32.76163915, 14.35705402, 6.63324958, 14.16333294
5.26307895, 5.22733202, 13.02593567, 10.89724736, 25.07289373, 12.95472887, 7.07283536, 14.17127376
5.94978991, 5.24404424, 11.46298390, 11.23165170, 26.74415824, 9.76857206, 7.88986692, 17.63164768
6.47302093, 3.34290293, 7.52994024, 8.94287426, 25.74393132, 11.31923142, 7.93725393, 18.82020191
6.82825014, 2.91118533, 8.10401135, 7.53491871, 22.43546300, 11.76435294, 6.99106573, 14.14743793
6.53261050, 3.38008876, 7.51664819, 8.54839166, 27.67489837, 9.46968848, 6.94802130, 10.93389226
6.43039657, 3.44963766, 7.81824789, 10.57946123, 35.90125346, 11.45971204, 6.72123501, 18.92022727
6.75462804, 3.34290293, 9.22496612, 10.69111781, 40.17492999, 12.78475655, 9.01942348, 19.22628409
6.73609679, 3.41320963, 9.21818854, 8.42763312, 37.88172383, 12.02913131, 8.98470923, 11.34239834
8.08084154, 3.24037035, 7.25603197, 7.32461603, 33.25920925, 13.18995830, 7.35866836, 12.86273688
9.71467961, 3.22877686, 7.53160010, 7.88352713, 36.45065157, 12.66293805, 7.48665479, 17.92554044
11.96662024, 3.16227766, 6.71565336, 9.78391537, 35.46900055, 10.96129554, 6.21691242, 20.24413495
10.12299363, 3.70809924, 6.71006706, 10.63954886, 31.00685408, 11.41928194, 6.05805249, 19.25746608
4.68508271, 3.74165739, 7.78620575, 10.11928851, 27.49454491, 12.24030228, 7.55148992, 17.49071182
4.48051336, 2.94957624, 9.34879671, 8.37555968, 31.16127404, 11.89852932, 8.37705199, 15.90282994
6.46335826, 2.88963666, 9.67470930, 7.38410455, 32.15703656, 11.17027305, 7.72495955, 15.87529527
7.50166648, 3.20546408, 7.67300463, 8.20518129, 31.28937519, 11.41709245, 6.64642761, 14.75211849