51.53833525, 55.01772442, 13.75409030, 25.93453296, 54.88692923, 48.74602548, 18.66882428, 43.95480634
47.15532844, 45.82030118, 13.69215104, 26.71142078, 51.39187679, 55.43509719, 22.16641604, 32.17025023
34.85649150, 32.24399169, 9.81835017, 22.15513484, 56.68112561, 49.71217155, 21.78933225, 28.51140123
25.39291240, 20.53229164, 9.60078122, 19.22758435, 58.74372307, 55.71557233, 17.14278274, 20.84586290
21.10154023, 18.79361594, 10.24939023, 16.78317610, 63.51869803, 48.94410077, 14.85513379, 15.64368882
17.26629665, 17.01396485, 8.19908531, 16.98455180, 54.10660773, 38.27662472, 13.62075622, 17.70381315
14.40138882, 14.43952908, 6.96778300, 14.70204067, 40.32555021, 43.38432897, 12.97112177, 19.11740045
15.10049668, 14.47065997, 8.09629545, 10.99090533, 49.03340698, 46.96754198, 18.82949813, 15.02997006
17.82904933, 16.21419132, 8.21127274, 12.62834114, 56.89595768, 50.84043666, 25.77644273, 16.76678264
14.58252379, 15.01249480, 9.03603896, 14.04279175, 53.38234727, 47.82990696, 24.27550205, 18.20851449
17.59474353, 15.56759455, 8.91627725, 15.07481343, 50.49108832, 48.20710529, 22.48332716, 18.76632623
19.20611882, 14.11027994, 6.54790043, 14.59280645, 52.85215227, 53.18810957, 21.10805533, 19.33714043
15.41752250, 12.50699804, 9.74679434, 17.26484868, 43.66749363, 45.11845520, 20.20024752, 23.84061660
16.36612355, 25.26163098, 44.39369325, 26.98749711, 41.37662384, 37.00945825, 20.13330574, 26.73013281
20.43587532, 31.01088519, 55.22408895, 30.08280240, 46.07738057, 51.00784253, 18.24349199, 25.07638331
19.82044399, 22.07147480, 40.80196074, 23.33773768, 45.53377867, 51.75857417, 20.09353130, 24.75782705
17.86337034, 14.87615542, 26.93649940, 16.13381542, 46.35299343, 39.78818920, 16.75783399, 21.66448707
23.05157261, 18.59905912, 22.20585508, 16.77200048, 52.35312789, 48.13834231, 20.42608626, 21.32838484
25.14060461, 22.51610535, 41.45569925, 27.12931993, 50.03473793, 55.64957322, 32.76049450, 28.14471531
22.81008549, 22.19177776, 48.56567718, 27.78668746, 37.52432544, 48.16534024, 34.18259791, 29.50889696
23.14465381, 21.36703068, 40.06525927, 19.11216890, 38.37935643, 39.96561022, 25.49166530, 24.83596183
25.21358761, 21.50000000, 29.06673356, 15.14265499, 42.04551106, 39.19725756, 22.55881203, 22.34222460
25.54946183, 18.54588903, 18.46280044, 12.74754878, 41.86316997, 38.25735223, 25.68413907, 27.69657018
24.81179155, 16.71526249, 26.89842003, 14.04190158, 46.67815335, 42.15121588, 24.38749680, 28.30282671
19.18202283, 13.89244399, 28.25022124, 14.82143718, 47.84088210, 41.10960958, 21.53021133, 26.02834993
19.30738201, 10.68058987, 21.14237451, 12.83939251, 37.42158468, 36.37066125, 19.56335861, 27.68393036
23.76289124, 8.36211696, 16.54916916, 11.02837250, 29.96247653, 32.38633971, 15.55554563, 25.84134284
19.60548393, 7.61741426, 12.53694540, 11.35121139, 33.46864204, 34.25967017, 17.32411614, 26.67020810
16.13071604, 15.35822255, 11.49891299, 11.16243701, 39.38464168, 37.39752666, 17.21481920, 22.98695282
15.87450787, 15.98358533, 9.99124617, 10.23718711, 41.27862643, 35.17918419, 16.33324830, 20.84166500
14.77751671, 8.53961357, 7.94984277, 8.63133825, 42.66380199, 29.29419738, 18.78563281, 19.88089535
15.72656987, 6.70074623, 6.39335593, 11.60495584, 44.02186957, 28.58015045, 18.12456896, 12.09235296
15.84534632, 9.25067565, 8.90084266, 13.67205178, 41.13544700, 32.37205585, 20.56939474, 14.11116579
17.18574991, 13.24764130, 9.38216393, 11.90378091, 41.00457292, 32.20558958, 22.80953748, 25.03946884
16.87749981, 11.67368836, 6.73238442, 8.69195030, 37.17290680, 30.51761786, 20.93024128, 24.52855479
12.32680007, 6.47881162, 5.22015325, 6.66708332, 32.03669771, 35.14576788, 17.44133022, 14.35270009
10.31261364, 5.59016994, 3.80788655, 9.28439551, 35.34190148, 33.99779405, 21.57197256, 15.00666519
14.12975584, 9.17605580, 4.45813863, 10.16612020, 35.05852250, 27.11411072, 26.21879097, 17.21844941
15.05323885, 13.10820354, 4.26614580, 9.35547968, 30.08944998, 26.03843313, 25.20218245, 15.79952531
12.40967365, 14.02319507, 4.58530261, 8.83742044, 28.73717105, 27.20707629, 25.07389080, 12.55388386
11.26831842, 13.11773609, 5.71839138, 9.24932430, 30.08944998, 28.90674662, 22.26825094, 16.07638019
13.62534403, 10.87543103, 6.98032951, 10.88577053, 42.93104937, 31.71829125, 20.62583332, 20.51036323
12.55985669, 10.78192933, 6.83739717, 11.37321415, 42.80420540, 34.24981752, 22.44604642, 17.46067009
7.76530746, 10.09207610, 5.38748550, 9.29650472, 29.07533319, 36.14346414, 24.11171914, 15.67801008
9.38616002, 8.21279490, 4.13521463, 7.48331477, 28.70627109, 39.94026790, 24.81431039, 15.82245240
10.86853256, 9.00000000, 4.97242396, 7.93095202, 33.31853838, 33.89210823, 26.12709322, 12.25255075
9.64624279, 7.94984277, 5.40370243, 7.08343137, 33.31553692, 27.83747474, 33.20353897, 11.96244122
10.78192933, 7.40101344, 6.67457864, 6.75462804, 29.41385728, 29.36366803, 31.18813877, 11.43568975
11.35121139, 7.28697468, 6.65018797, 6.72123501, 29.77079105, 31.43564855, 20.22313032, 10.24573082
8.34415963, 5.05470078, 5.16236380, 6.83373983, 34.54670751, 31.83040999, 18.15213486, 14.35618334
11.66726189, 10.08959860, 6.57457223, 7.89461842, 34.95890445, 43.35810190, 20.90633875, 19.82170527
16.73544143, 13.69671493, 9.99874992, 8.26589378, 36.17181223, 48.79267363, 24.04319030, 19.48075974
16.76976446, 11.76647781, 12.24132346, 11.32695899, 39.05412910, 43.85173885, 25.10029880, 18.79694124
23.13276897, 17.37239189, 16.12684098, 12.32172877, 37.84640009, 39.35892529, 24.11379273, 21.41436434
22.68424563, 19.35394017, 18.70026738, 10.98863049, 37.20047043, 31.82373328, 21.13291272, 19.57166319
15.11869703, 16.01561738, 17.59545396, 13.59963235, 38.88958730, 37.87743392, 19.78951743, 21.75086205
16.61550481, 16.78764427, 24.12933899, 14.52756002, 36.69536756, 39.36527658, 20.28915967, 25.07638331
17.71228387, 18.51350858, 30.87231770, 12.67773639, 31.30774665, 35.35251052, 20.67970019, 25.05893054
16.51363073, 17.57555120, 31.15445394, 13.35383840, 37.13926494, 38.05128119, 22.95212408, 25.90849282
18.86001060, 32.28312253, 51.34418175, 28.06554828, 43.32637765, 42.26434668, 31.17410785, 33.63517504
17.94923397, 33.60989438, 50.62138876, 30.05744500, 44.45981331, 44.28459100, 30.66349621, 34.46810120
10.60660172, 19.10759011, 25.86020108, 18.84741362, 43.65833254, 36.81711559, 22.26039083, 23.20183182
10.89495296, 18.78496739, 19.97185520, 14.39270649, 44.07919010, 33.09796066, 23.17757537, 20.84166500
14.47756886, 19.87649365, 15.25696562, 15.87214541, 35.46054145, 31.24419946, 21.45285529, 22.43824859
15.04077791, 21.10864752, 19.97998999, 18.48107140, 26.39507530, 34.11341378, 29.72541001, 25.47645972
11.35231254, 17.65927518, 17.01176064, 14.18273598, 34.94746057, 39.16375876, 33.90648905, 29.01163560
8.61103943, 11.31702258, 5.23211238, 11.94047738, 47.07042596, 37.57758640, 29.77498950, 28.25287596
9.77752525, 10.59952829, 6.43622560, 13.82931669, 54.24781102, 41.89063141, 31.62435770, 24.36339467
11.23498999, 13.33697867, 5.76844866, 10.61484809, 50.39270781, 39.51202349, 30.77823907, 22.77169295
10.39951922, 14.87783586, 4.55796007, 8.69195030, 45.42218621, 36.94590640, 27.96515689, 20.53594410
10.96243586, 14.43606595, 5.88430115, 11.05214911, 43.71184050, 36.97532961, 31.31772661, 18.82352252
9.53283798, 11.50108691, 5.71839138, 10.95445115, 39.11649269, 31.26499640, 30.08404893, 19.65515200
6.56315473, 8.14861951, 4.64488966, 10.96699594, 30.84517791, 27.59393049, 21.89691759, 19.38943011
6.78601503, 7.48665479, 5.00999002, 12.37032740, 27.47043866, 26.50943228, 24.29557573, 24.41771898
5.12835256, 5.66789202, 5.19615242, 13.46755360, 32.68332908, 36.42389326, 27.13438778, 24.53161226
5.95189046, 6.57647322, 5.42448154, 14.50086204, 46.53547034, 37.38749791, 26.46034769, 18.16521401
9.11180553, 9.18830779, 5.84380013, 13.92300255, 47.62824792, 32.20015528, 26.25452342, 16.45676153
8.10092587, 8.71062570, 5.25119034, 11.28162222, 36.43350107, 34.63091105, 23.57435047, 18.30095626
3.76497012, 5.07690851, 3.80131556, 7.46993976, 36.60054644, 28.79236010, 19.70342610, 18.52228388
4.12916456, 4.05894075, 3.61247837, 7.13091859, 35.98124511, 24.09979253, 18.49121413, 17.27208731
5.28913982, 4.54697702, 3.80788655, 7.80384521, 38.60246106, 27.46543282, 17.17483624, 17.57270611
5.49545267, 5.12347538, 3.33916157, 6.57457223, 36.65003411, 24.66424538, 23.65058139, 18.87392381
5.27967802, 5.59464029, 3.39116499, 7.06929982, 26.75537329, 22.58705381, 27.35141678, 16.99926469
4.49444101, 4.59075157, 3.42417873, 9.36215787, 24.57641145, 26.33771061, 21.35122947, 15.98045681
4.47772264, 3.88908730, 4.11096096, 10.95673309, 21.11516043, 27.09012735, 19.18788680, 12.89282746
5.70745127, 5.02991054, 4.20713679, 9.43000530, 23.78444870, 26.20925409, 19.25357110, 12.04678380
7.50000000, 5.34322000, 3.76828874, 9.03327183, 32.69059498, 23.29860511, 16.97277231, 14.77751671
6.60681466, 4.91680791, 4.23083916, 10.03244736, 38.49350595, 20.99226048, 13.92838828, 15.08393185
4.42153819, 4.20416460, 4.06509532, 8.46463230, 34.79798845, 22.30414760, 12.05300792, 15.55956298
6.39726504, 3.33916157, 3.33541602, 7.03029160, 30.56018652, 20.44321403, 11.49673867, 15.30114375
5.62138773, 3.69120577, 3.26343377, 7.73304597, 35.29589211, 19.21783026, 14.84587485, 15.83035060
4.58257569, 4.15932687, 3.10644491, 8.03741252, 33.26522208, 22.41260806, 20.29347186, 20.31686492
6.88658115, 4.11096096, 2.76134025, 8.01093003, 32.21684342, 23.37627002, 23.98697563, 20.93800373
8.84731598, 6.65770231, 3.06594194, 7.67463354, 32.53651795, 25.37173624, 24.26829207, 16.42406771
8.77923687, 6.50960828, 3.06594194, 6.35413251, 33.57082066, 24.80020161, 20.81946205, 16.23345311
7.30239687, 5.37354632, 3.22102468, 7.20936890, 35.21540856, 22.68975540, 23.38910003, 17.97080966
6.09302880, 6.19071886, 4.26321475, 10.21396103, 38.49123277, 27.38567144, 27.19880512, 15.16575089
7.36715685, 6.94622199, 4.86569625, 11.03517105, 41.31978945, 31.21978539, 28.34431160, 12.58272625
7.34336435, 6.89927532, 4.30406784, 9.19918475, 32.89718833, 29.28993001, 27.67941473, 12.10681626
5.63471383, 5.64358042, 3.33541602, 8.81617831, 26.67302008, 22.72608633, 22.99619534, 11.73456433
5.92241505, 5.76411311, 3.77822710, 9.59035974, 33.26710087, 21.80080274, 16.51287377, 15.50241917
5.41525623, 5.53624421, 4.05585996, 9.21683243, 33.11155387, 26.53111381, 11.63829884, 16.61550481
5.70087713, 5.33619715, 3.78153408, 7.31949452, 36.66333318, 27.91191502, 16.58463144, 16.43319811
5.79007772, 5.28913982, 3.38008876, 5.72931060, 44.78420480, 31.54362059, 22.35229295, 15.86820721
4.34453680, 5.13322511, 3.00416378, 6.87931683, 40.85982134, 31.31453337, 25.37124356, 14.01517035
5.29386437, 4.69840398, 3.16622804, 8.24166245, 41.73547652, 26.93835555, 22.84348923, 15.78923684
6.86112236, 5.58793343, 4.01870626, 8.84872872, 44.46543601, 27.29468813, 17.37383090, 16.56577798
6.27495020, 5.52268051, 4.08962101, 7.46659226, 33.40172151, 24.68400292, 17.67979072, 18.91758441
6.01872079, 4.41871022, 4.36463057, 8.77496439, 29.05296887, 25.22250979, 20.44443690, 20.76475379
7.16065639, 6.40702739, 4.99749937, 10.81203034, 31.44360030, 29.37430850, 23.36396798, 20.81405775
7.93882863, 7.10985232, 3.95916658, 10.06975670, 31.92334569, 27.34318928, 20.05492458, 18.14249156
7.02139587, 5.87367006, 3.02902625, 9.33541643, 37.37144632, 26.58900149, 14.57737974, 11.27608088
6.75277721, 6.93361378, 3.86005181, 8.47938677, 38.42785448, 27.30338807, 18.71029129, 12.38749369
7.66485486, 8.31264098, 4.11400049, 8.90505474, 35.04639782, 28.48596145, 20.98153951, 15.59326778
7.01605302, 7.81504958, 4.49444101, 9.91463565, 35.32704347, 29.11786393, 18.61182420, 14.35182915
6.62570751, 7.78941590, 4.36176570, 9.18558654, 42.26523394, 28.47586698, 16.17791705, 16.01795867
9.53152664, 7.48164420, 3.39852909, 6.85747767, 39.11489486, 30.73353218, 21.30962224, 16.30414058
10.77845072, 7.63380639, 3.71819849, 6.73609679, 34.25784582, 29.09553230, 19.76233792, 15.82640199
9.78519290, 7.77817459, 3.66742416, 7.54817859, 30.89417421, 23.86210385, 11.94571053, 20.12336950
8.75928079, 8.62988992, 3.52136337, 7.29211903, 25.99759604, 20.14571915, 10.11805317, 18.94663559
7.94355084, 8.35613547, 4.20119031, 8.01093003, 28.70931904, 27.58849398, 8.53814968, 16.19413474
9.04848054, 6.88113363, 3.98748041, 7.31607818, 26.13952945, 30.43558772, 8.72782905, 17.54850421
9.66953980, 7.42125326, 3.56370594, 6.30674242, 21.36761568, 23.36289794, 8.19298480, 17.04772712
8.89522344, 6.67832314, 3.32791226, 6.32060124, 29.32405156, 21.56617722, 7.71848431, 15.80348063
6.55934448, 4.88620507, 2.50499501, 6.51152824, 30.35992424, 19.98311787, 6.45174395, 16.83003268
8.35314312, 6.00832755, 2.90688837, 7.33655232, 25.92633796, 16.88046208, 7.71200363, 17.04699387
10.03120132, 6.34034699, 3.25192251, 7.89936706, 36.19115914, 16.16168308, 8.14555093, 14.32480366
7.49166203, 4.20713679, 3.10241841, 6.76941652, 41.12511398, 24.45966067, 9.76089135, 10.49166336
6.36003145, 3.22102468, 3.01662063, 5.71839138, 37.95523679, 25.97643163, 9.15969432, 11.24499889
7.59934208, 3.14245127, 3.32791226, 7.59111323, 33.25695416, 25.13861571, 7.39256383, 13.97587207
8.90224691, 5.16478460, 3.63318042, 8.12096053, 32.01171661, 27.34684625, 8.93028555, 17.45852227
8.16700680, 5.04232089, 3.52136337, 8.07619960, 36.09501351, 26.37328193, 9.54463200, 18.17209399
6.64266513, 4.27784993, 3.33166625, 8.52496334, 38.87351283, 23.18296789, 7.96084166, 13.91402170
5.79223618, 4.75920161, 3.99687378, 8.57321410, 35.08489704, 18.04023281, 7.45821695, 13.75318145
4.71963982, 4.57984716, 3.73162163, 6.91917625, 32.63127334, 25.97161913, 11.18481113, 16.68082732
4.72493386, 4.38178046, 3.15039680, 6.07042008, 33.10551314, 29.08393027, 13.13773192, 17.42770782
4.92442890, 3.47850543, 3.42782730, 7.11512474, 30.24979339, 21.44527920, 11.54339638, 14.40659571
5.02493781, 3.71483512, 3.35782668, 6.93000722, 32.75629710, 18.94729532, 8.33066624, 10.38508546
6.57076860, 4.69041576, 3.81444622, 8.80624778, 34.77067730, 22.06411113, 8.75785362, 13.80670127
7.37733014, 4.89387372, 4.02802681, 8.69051207, 34.69654161, 24.01978351, 9.27092228, 14.55077318
6.42261629, 5.00499750, 4.11096096, 8.05294977, 36.64252993, 22.37018105, 8.65158945, 16.63956129
5.34789678, 5.27967802, 3.69797242, 7.50499833, 37.53864675, 21.12463017, 11.52171862, 19.21327666
5.54301362, 5.27257053, 3.27108545, 6.53834842, 35.44185379, 25.17389521, 13.74136092, 17.35007205
6.82458790, 4.97995984, 3.08220700, 6.69514750, 33.82713408, 25.96921254, 11.10292754, 14.30908802
6.43234017, 4.11703777, 2.99165506, 5.39907399, 32.93022927, 24.04578965, 10.63132165, 13.13963470
5.25357021, 3.43874977, 3.32791226, 5.97076210, 27.65456563, 23.82802971, 11.04309739, 16.75111937
7.06929982, 4.34453680, 3.73496988, 8.03585714, 28.20726857, 23.69388107, 10.20906460, 15.39155613
7.24568837, 5.37354632, 4.15331193, 10.19926468, 34.86187029, 23.64582416, 12.29024003, 13.34166406
5.82880777, 4.98497743, 4.19821391, 9.41408519, 34.13978617, 21.57950416, 12.17682225, 13.94005022
7.98279400, 4.54147553, 3.73496988, 7.17286554, 31.05519280, 19.31126614, 10.53684013, 12.94314490
8.47643793, 4.93203812, 2.87662997, 6.10737259, 29.52625950, 21.55052204, 10.79583253, 16.63129580
9.03603896, 4.94722144, 2.80624304, 4.76707457, 32.29241397, 24.47754073, 14.88707493, 21.70368632
9.64365076, 6.18869938, 3.35037311, 5.18169856, 28.81188991, 32.00663994, 20.75933525, 19.89974874
9.01665126, 6.23698645, 3.33541602, 6.13595958, 22.05561153, 35.72324173, 25.33377193, 15.80506248
7.61413160, 4.74868403, 2.94108823, 6.28689112, 25.98124323, 29.81358751, 22.33774832, 19.02169814
5.47494292, 4.66636904, 3.20546408, 6.11759757, 26.53629590, 27.19466860, 16.23730273, 20.03746491
7.35696948, 4.63141447, 3.79802580, 6.60870638, 32.65195247, 28.83053936, 13.70857396, 20.21261982
8.49705831, 5.18893053, 3.74833296, 7.33655232, 34.12074149, 29.93826982, 16.07793519, 19.66723163
9.21954446, 6.22695752, 3.58120092, 6.71751442, 36.50376693, 29.98999833, 23.20021552, 18.97103055
8.79062000, 5.42448154, 4.14427316, 6.74722165, 34.79978448, 27.61068634, 24.13348296, 20.08357538
6.14206806, 4.96487663, 3.78813938, 7.12916545, 26.13283375, 25.26855754, 22.11390965, 21.76292719
4.89642727, 5.45435606, 3.02489669, 5.70306935, 28.34872131, 23.30289682, 19.36362569, 20.62219678
5.39444158, 5.88430115, 3.20936131, 5.31742419, 27.84780063, 24.13192906, 18.15833142, 13.85730854
6.52111954, 6.15832770, 3.42052628, 6.60681466, 36.60908357, 25.04995010, 18.50337807, 16.88490450
6.58976479, 5.48178803, 3.21325380, 6.28689112, 36.15072613, 26.74602774, 22.78266885, 19.76739740
6.94082128, 4.70903387, 2.92831009, 5.29386437, 35.97638114, 28.57665131, 23.15923142, 15.08973161
6.54980916, 4.14728827, 3.08625987, 5.30565736, 35.06957371, 30.77580218, 23.00652081, 13.02689526
7.63380639, 4.53321078, 3.09838668, 5.82880777, 22.53996451, 28.75891166, 20.85545492, 18.65140745
7.66322386, 4.92696661, 3.02076149, 6.59734795, 22.27610828, 22.92433205, 9.76857206, 20.17671926
4.75394573, 4.97995984, 3.34290293, 6.43039657, 28.50701668, 18.70761877, 7.27667506, 15.84455743
5.17204022, 4.98748434, 3.46410162, 7.35527022, 41.64072526, 17.53567792, 8.37257428, 14.03121520
6.92639878, 4.77493455, 3.38378486, 7.07460246, 47.42757637, 23.46806341, 13.33791588, 15.02414723
6.33048181, 4.65026881, 3.42052628, 5.80301646, 41.91837306, 23.40566171, 13.53329228, 15.53061493
5.35023364, 4.13823634, 3.07001629, 6.58407169, 35.20156247, 16.98455180, 12.16552506, 12.73773920
5.51135192, 4.31277173, 3.80788655, 7.67137537, 38.59501263, 20.89497547, 12.15627410, 14.28285686
4.69041576, 5.52268051, 4.38178046, 8.45428885, 44.61053687, 31.07169130, 10.29684418, 20.74668648
4.99749937, 5.32681894, 4.06201920, 7.58617163, 40.14069008, 31.40382142, 10.78192933, 19.91858429
5.31977443, 4.18031099, 3.55668385, 6.37965516, 31.74980315, 26.54948210, 12.51798706, 14.40225677
4.87083155, 4.93203812, 3.98748041, 7.15891053, 32.66687925, 25.81327178, 13.28062499, 14.30297172
4.86055552, 4.73022198, 3.94968353, 6.62004532, 30.62678566, 23.16840521, 11.51195031, 13.35664629
5.67230112, 3.04138127, 3.11046620, 6.57076860, 32.19860245, 20.32793644, 10.32593821, 15.18387302
5.48178803, 4.61789996, 3.27871926, 7.30239687, 36.14208074, 19.14680130, 10.25670512, 15.00333296
5.43369119, 4.99249437, 3.13049517, 7.26464039, 36.66060556, 24.58251411, 11.16131713, 15.01582499
5.87579782, 4.08656335, 3.14642654, 7.86447710, 37.43127035, 24.95495943, 12.85204264, 15.48224790
5.30094331, 3.80131556, 3.19374388, 6.54980916, 29.74978992, 23.78655082, 12.67181913, 11.97288603
5.39444158, 3.35037311, 2.84604989, 4.88620507, 18.72565086, 24.02550728, 10.72497086, 10.84896308
4.79061583, 3.67423461, 3.25192251, 6.80991924, 29.22926616, 23.53561132, 8.36211696, 9.33005895
4.15030119, 3.70809924, 3.38378486, 7.25430906, 32.97233689, 22.39363749, 6.95341643, 10.53802638
4.44971909, 4.39886349, 2.89827535, 6.34428877, 30.17076399, 21.38223562, 10.92130945, 11.37760959
4.09878031, 4.46934000, 2.87228132, 6.83373983, 35.09273429, 23.87257841, 14.05435875, 20.01999001
5.99791630, 4.46094160, 2.72946881, 6.86840593, 36.46265213, 19.44286502, 14.00357097, 21.60034722
6.52495211, 5.30801281, 3.09434969, 6.95521387, 31.99335869, 15.94208267, 11.48477253, 14.63301063
5.29150262, 4.43565102, 3.51425668, 7.08695986, 26.41022529, 16.62528195, 12.03536456, 15.43372930
4.12310563, 3.88265373, 3.22490310, 6.85747767, 23.47924615, 22.53441812, 15.66365219, 15.42400726
3.68781778, 4.10487515, 2.88097206, 5.72057689, 19.76613265, 23.57063851, 12.47898233, 11.46952484
4.74868403, 3.41320963, 2.81957444, 5.46122697, 21.51104368, 21.78646369, 8.46463230, 12.90639376
4.98497743, 3.21325380, 2.95803989, 6.51728471, 25.48136574, 21.02617416, 10.75406900, 15.38587014
4.70106371, 3.15436206, 2.84165445, 6.93361378, 25.70700294, 15.83745560, 12.22906374, 13.94811815
4.95983871, 3.41686991, 2.70185122, 8.05139739, 27.68257575, 22.88558498, 11.62862847, 14.39618005
5.58121850, 3.89230009, 2.99583044, 7.84059947, 31.04955716, 25.18680210, 12.00937134, 13.51295675
6.03324125, 4.43001129, 2.97909382, 6.39531078, 29.69553839, 22.54828153, 14.90385856, 12.36931688
5.36889188, 4.25440948, 3.09434969, 6.78785680, 22.55881203, 24.84753509, 13.63451503, 12.16038651
4.97493719, 3.48568501, 3.07001629, 6.44204936, 20.87941570, 26.17202705, 10.13039979, 15.27579785
5.45435606, 4.06509532, 2.95381110, 5.10881591, 24.56114818, 23.14195325, 10.73545528, 21.79564177
4.64219776, 4.17133072, 3.10644491, 5.31507291, 24.65157196, 17.93390643, 11.00681607, 19.39652031
3.50356961, 3.99061399, 2.89395923, 5.95608932, 26.42205518, 15.15585695, 8.28100235, 11.43241007
4.15331193, 3.81444622, 3.07408523, 6.06630036, 26.81231061, 14.95075249, 8.21431677, 10.07472084
5.60802996, 3.56370594, 2.97069016, 5.44518136, 26.87610463, 18.29754082, 8.32316046, 12.60357092
5.80947502, 4.33301281, 3.09838668, 7.00178549, 31.04512844, 16.86045670, 8.50000000, 13.90593399
5.25119034, 4.10182886, 3.15039680, 7.60263112, 30.37762334, 13.86001443, 8.78066057, 13.13297377
5.11126208, 3.76497012, 2.48495473, 5.77711000, 27.35370176, 16.33171761, 6.26298651, 12.13053997
6.11964051, 4.04660351, 2.48997992, 5.08428953, 27.24334781, 17.30462366, 5.33619715, 10.43551628
6.05185922, 3.81116780, 2.91547595, 6.34625874, 29.54530420, 17.28221629, 5.98539890, 14.51809216
5.33385414, 3.07814879, 2.83725219, 6.16846821, 30.54709479, 15.70509471, 5.41525623, 15.49677386
7.61741426, 2.61725047, 2.38746728, 5.88642506, 32.71849630, 14.73346531, 6.45948914, 13.74954545
7.48999332, 2.69258240, 2.30759615, 6.74166152, 32.92795165, 16.42026187, 6.98748882, 15.16080473
5.25832673, 3.04548847, 2.72029410, 6.19475585, 25.91765807, 15.76705426, 5.13565965, 12.38648457
5.03984127, 3.05777697, 2.78388218, 4.99749937, 24.77246455, 13.37908816, 5.09165985, 7.64198927
4.91426495, 2.36114379, 2.61725047, 6.39140047, 25.33278508, 13.39402852, 6.15426681, 8.93867999
4.59075157, 2.24165118, 2.50998008, 7.37054950, 21.07249392, 18.17622073, 6.17656863, 12.10888104
4.70903387, 3.48209707, 2.98328678, 6.53452370, 22.52609598, 19.29896370, 6.17859207, 13.47775946
4.55796007, 3.62284419, 3.15436206, 6.30079360, 29.17961617, 20.33285519, 6.37573525, 14.45942599
4.15632049, 2.81513765, 2.94957624, 6.04359165, 27.75968300, 23.83012799, 8.08393469, 13.90773166
5.20576603, 3.06186218, 2.83284309, 5.64136508, 26.03939323, 22.42152983, 9.59817691, 12.91897829
5.49545267, 2.78836870, 2.32916294, 5.63249501, 30.01457979, 17.16610031, 8.90645833, 12.14392852
5.24404424, 3.03726851, 2.39269722, 6.62570751, 30.17946322, 19.26330709, 6.62570751, 13.89694211
4.78016736, 3.22102468, 2.52487623, 6.33640276, 27.73490580, 21.55052204, 5.71620503, 14.73855488
5.28441104, 2.91118533, 3.06186218, 5.84593876, 32.21878334, 20.82486495, 6.74166152, 12.91123542
5.96657356, 2.95803989, 3.21714159, 8.16241386, 35.42492061, 17.84026345, 6.73609679, 15.42238633
7.28697468, 3.18590646, 3.04138127, 8.65592283, 28.95945441, 16.95361318, 6.85200701, 15.94443477
8.37257428, 3.24037035, 2.74317334, 6.11759757, 29.80771712, 17.73344298, 6.61248819, 14.34573107
7.20416546, 3.33166625, 2.94957624, 5.84807661, 33.83415434, 16.35619149, 6.60492241, 13.33979010
5.92663480, 3.02489669, 3.13049517, 6.92639878, 31.69897475, 17.98054504, 7.67137537, 18.00971960
5.92241505, 2.50499501, 2.60768096, 6.75462804, 31.29137261, 21.17368650, 7.05868260, 22.41651177
5.98748695, 2.62202212, 2.73861279, 6.90289794, 32.30711996, 18.86464948, 5.94348383, 19.82233589
6.17251974, 3.22490310, 2.93257566, 6.36199654, 27.85677655, 13.17668395, 6.55362495, 17.62171955
5.73367247, 3.73162163, 3.05777697, 5.97076210, 22.35508891, 15.96558799, 7.06929982, 17.40976737
4.35889894, 3.44963766, 3.02076149, 6.86658576, 23.53932879, 19.91607391, 8.63568179, 16.10745169
3.63318042, 2.81957444, 3.25576412, 7.51332150, 30.96732149, 22.37632678, 8.13480178, 13.67205178
4.54697702, 3.29772649, 3.13448560, 7.27839268, 30.55609595, 20.22745659, 7.60427511, 13.12249976
6.96778300, 3.70472671, 2.77037904, 6.84470598, 21.76465024, 19.46278500, 9.08019824, 15.34030639
6.43816744, 3.21325380, 2.83725219, 5.72057689, 28.23473039, 20.36786685, 8.36958780, 13.05565012
5.40601517, 3.39116499, 2.60288302, 4.93457192, 34.56841043, 18.39633116, 6.40507611, 12.42276137
5.47037476, 3.09434969, 2.32916294, 5.14052526, 30.92895084, 16.55974034, 4.53872229, 14.06058320
4.19523539, 3.09838668, 2.63628527, 5.50908341, 28.98577237, 13.74681781, 4.62871472, 12.17168846
4.57711700, 3.64691651, 2.75680975, 6.42845238, 30.79001462, 16.24038177, 5.22494019, 13.08147545
6.92098259, 3.20546408, 2.19089023, 5.63027530, 31.59549018, 16.11986352, 5.18893053, 12.54591567
7.19722169, 3.22877686, 2.99165506, 7.47663026, 36.14173488, 12.68365089, 4.99499750, 11.20267825
5.60133913, 3.02489669, 3.06594194, 7.63871717, 36.14484749, 12.82867881, 5.90127105, 11.62110150
5.82880777, 2.90688837, 2.20227155, 5.45664732, 28.35401206, 15.68757470, 7.15192282, 10.32109490
6.25299928, 3.37638860, 2.50000000, 6.31070519, 25.43914307, 16.75186557, 6.34625874, 10.28955781
5.46351535, 2.97909382, 2.54460213, 6.22896460, 22.04427363, 16.35924815, 4.60705980, 10.30533842
4.81144469, 2.73861279, 2.35053185, 6.12576526, 21.58934923, 16.00624878, 5.16720427, 9.78135982
5.31036722, 2.67861905, 2.41867732, 6.51728471, 31.14682969, 14.25920755, 6.98391008, 9.74294617
5.91185250, 2.96647939, 2.82400425, 6.36788819, 28.93829643, 16.46739202, 6.81175455, 11.12092622
5.70526073, 3.24422564, 2.95803989, 5.41756403, 26.70252797, 16.04758549, 5.45664732, 12.20655562
5.87154154, 3.13049517, 2.98747385, 5.62361094, 33.70571168, 12.23928102, 6.67083203, 13.38936145
6.65582452, 3.61247837, 3.22102468, 6.05805249, 31.32570829, 13.87533783, 6.39726504, 13.78132795
6.76756973, 4.26907484, 2.83725219, 5.19133894, 28.52060659, 15.97341541, 5.13322511, 13.55083023
6.18263698, 4.40738017, 2.84165445, 6.41482658, 25.27943828, 15.76308980, 5.53624421, 13.54252561
6.43428318, 3.94651745, 2.94957624, 7.57957782, 28.29045776, 15.93973024, 6.38357267, 16.61926593
6.32060124, 2.93257566, 2.33987179, 6.93902010, 28.65920446, 17.49642821, 7.16065639, 15.24139101
6.05598877, 2.67394839, 2.58843582, 6.72681202, 24.77145535, 21.42720234, 6.06011551, 11.61895004
6.23097103, 3.15832234, 2.87228132, 6.84105255, 29.34791304, 19.57102450, 5.49090157, 13.29097438
6.04772685, 2.96226265, 2.61725047, 7.30924073, 30.19271435, 15.04077791, 5.63249501, 14.01517035
6.11759757, 3.38008876, 2.91976026, 7.24396300, 29.36920156, 18.46212339, 6.31268564, 14.29248054
5.42217668, 4.34453680, 3.02489669, 6.15020325, 31.21738298, 18.24486229, 7.06929982, 12.98364356
7.65016340, 4.25147033, 2.62678511, 5.61471282, 29.36068800, 20.33039596, 7.17286554, 11.21605991
7.59440584, 3.53199660, 2.47991935, 6.64266513, 26.56030873, 22.56213642, 9.05124301, 11.61141680
4.56891672, 4.51663592, 3.01662063, 7.38071812, 26.91653767, 20.82486495, 9.19646671, 11.41818725
4.41588043, 4.15632049, 3.04959014, 6.08276253, 28.43721154, 19.50448666, 7.65343060, 12.13363095
6.53643634, 2.92831009, 2.70647372, 5.49317759, 34.47571609, 15.41671171, 6.20886463, 13.29943608
8.78066057, 4.05277683, 2.90258505, 5.73149195, 36.47396332, 15.31828972, 6.02909612, 10.78888317
8.12249962, 4.09267639, 2.82400425, 5.74891294, 33.27348794, 17.78552782, 6.52303610, 9.30994092
7.07636913, 3.17804972, 2.60288302, 6.29880941, 32.53037043, 19.07354188, 5.94138031, 13.85821056
6.36788819, 3.16227766, 2.56904652, 6.77679865, 32.49846150, 18.98354551, 6.01040764, 16.69730517
5.22015325, 3.96547601, 3.25576412, 6.83191042, 27.25802634, 17.57768472, 6.06217783, 14.17656517
5.47265932, 4.84767986, 3.29772649, 6.48845128, 24.79465668, 15.35903643, 6.18869938, 11.66297561
4.93457192, 5.22015325, 2.94533530, 6.37769551, 24.44330174, 14.69353599, 7.07283536, 10.87543103
4.79843725, 5.11615090, 2.88963666, 6.26897121, 19.48781671, 25.76043478, 14.62446580, 12.89379696
5.31272058, 4.16233108, 2.61247010, 6.09097693, 23.33130944, 26.50094338, 15.03329638, 13.89694211
5.54977477, 3.89871774, 2.95803989, 6.94262198, 26.19398786, 19.89535122, 10.72730162, 10.95216874
5.40832691, 4.10791918, 3.79473319, 8.15322022, 25.88532403, 20.62704535, 12.20143434, 7.97809501
5.81592641, 3.32039154, 3.38008876, 6.99106573, 30.67368579, 20.12523292, 10.42832681, 10.91787525
5.44977064, 3.55316760, 2.82400425, 6.15426681, 30.70464134, 20.96962088, 8.53229160, 12.35920709
3.93382765, 3.79143772, 3.14245127, 6.79705819, 32.24011476, 17.82764707, 7.20763484, 9.66953980
3.81444622, 3.52136337, 2.71108834, 6.78601503, 29.00775758, 15.18881167, 5.75543222, 10.96129554
4.18628714, 4.26028168, 2.94533530, 7.19548470, 33.54660937, 16.01873903, 6.73238442, 12.80917640
3.63318042, 4.62601340, 2.97489496, 6.96419414, 36.65378562, 16.23499307, 6.11964051, 12.72792206
3.50713558, 3.82753184, 3.02076149, 7.58617163, 30.66838763, 18.80292530, 7.02495552, 14.14036775
3.30151480, 3.05777697, 3.17804972, 8.09629545, 27.53633963, 17.97845933, 7.27151979, 13.56650287
3.02489669, 2.69722079, 2.88097206, 7.55479980, 27.57852425, 15.49919353, 5.69868406, 10.83743512
3.41686991, 3.33166625, 2.81957444, 7.23532999, 41.86585721, 14.49913791, 5.71401785, 14.83239697
3.51069794, 3.92428337, 2.63153947, 6.20483682, 41.62150886, 16.48787433, 6.06011551, 14.76566964
3.15039680, 3.47491007, 2.75680975, 4.83476990, 31.11551060, 18.34121043, 6.05185922, 11.26831842
3.30151480, 3.08220700, 2.79284801, 5.37121960, 32.13409404, 19.53842368, 5.35490429, 14.92732394
3.56721180, 3.39116499, 3.00000000, 6.11964051, 31.74389705, 17.34718997, 5.67230112, 15.48547707
3.40587727, 4.02492236, 3.26343377, 7.42967025, 32.50269220, 14.87363439, 6.95341643, 13.34166406
3.47131099, 4.03422855, 3.04548847, 7.85334324, 32.07374316, 17.15298808, 6.54599114, 10.58654807
3.18198052, 3.02902625, 2.50499501, 6.28887907, 33.19487912, 15.97106759, 4.63680925, 9.60338482
3.04138127, 2.96647939, 2.25277607, 5.52494344, 29.18090129, 12.67083265, 4.51663592, 12.20348311
3.36526373, 3.39852909, 2.34520788, 5.31977443, 21.03390121, 11.59956896, 4.92950302, 10.54751155
3.29013678, 3.17411405, 2.66926956, 6.08070720, 25.43226297, 14.04902132, 4.98246927, 8.27496224
3.17017350, 3.13049517, 2.95381110, 7.19200945, 26.45798556, 16.11753703, 6.20886463, 11.76116491
3.95600809, 3.29013678, 3.45687720, 6.76017751, 21.60150458, 14.23288446, 5.39675829, 12.56284204
3.76497012, 3.00416378, 3.69120577, 5.69429539, 20.81706031, 13.33135402, 4.85025773, 12.47798061
3.46049129, 3.12649964, 2.96226265, 4.63141447, 25.82053446, 20.13703057, 5.25832673, 14.36836804
4.01248053, 3.74499666, 3.06186218, 5.27730992, 31.18172542, 21.94424754, 4.79583152, 13.05086204
4.40170422, 3.53906767, 3.18590646, 8.24469526, 35.74807687, 18.38137644, 6.01248701, 12.88118783
4.43283205, 3.02489669, 2.69722079, 8.40238062, 32.58143643, 16.81963139, 6.29285309, 12.94990347
3.99061399, 2.85919569, 2.50998008, 6.12984502, 31.52776554, 19.92674083, 5.45893763, 10.50357082
4.70903387, 3.09434969, 2.66458252, 5.92241505, 32.10101245, 19.41713161, 5.53624421, 10.16489056
4.69308001, 3.08220700, 2.86356421, 6.48845128, 31.67214865, 13.24764130, 5.48634669, 10.61249264
3.96547601, 3.10644491, 2.64102253, 6.79889697, 30.95076736, 15.44425460, 5.34555890, 11.74946807
4.22788363, 3.25960120, 2.34520788, 6.55743852, 27.53043770, 20.93740672, 9.49078500, 12.55786606
4.40454311, 3.71819849, 2.97069016, 8.02340327, 30.43887317, 18.68956928, 12.70236199, 11.03743630
4.88364618, 3.90192260, 3.67763511, 9.77880361, 29.22327839, 20.60582442, 11.80783638, 10.39110196
5.08674749, 3.32039154, 3.61939221, 8.86143329, 25.80310059, 23.25295680, 9.29784921, 11.81630230
4.22788363, 3.08220700, 3.05368630, 6.82458790, 24.11534781, 18.30641964, 9.24526906, 11.00908716
3.58468967, 2.60768096, 2.52982213, 6.46335826, 25.12568407, 14.71903529, 8.20365772, 10.03120132
3.42417873, 2.46475151, 2.44948974, 7.47997326, 25.31452152, 14.25920755, 4.89131884, 9.19510739
4.06201920, 2.65518361, 2.41350368, 7.25947657, 30.91722821, 14.91643389, 4.70637865, 9.09395404
4.42436436, 2.73861279, 2.35053185, 6.50000000, 30.50983448, 17.44061352, 4.88364618, 10.97041476
3.88908730, 3.10644491, 2.63153947, 6.98927750, 27.72994771, 16.54992447, 4.81404196, 14.20651259
3.82426464, 3.04959014, 2.81957444, 7.10985232, 29.39727879, 11.64581470, 4.74868403, 14.87531512
3.85356977, 2.85919569, 2.82400425, 7.73466224, 28.64698937, 11.67904106, 5.12103505, 12.43885043
3.85356977, 2.91118533, 2.66926956, 6.95521387, 28.64786205, 17.76443075, 5.78143581, 11.62647840
3.80131556, 3.20546408, 2.78388218, 7.07813535, 23.93741841, 19.12720576, 5.15751878, 10.92817460
4.36176570, 3.12249900, 2.41867732, 7.21283578, 25.06790777, 15.05240845, 5.05222723, 10.59952829
4.29825546, 3.26343377, 2.32916294, 6.15223537, 25.23737308, 15.10049668, 5.22254727, 10.29077257
3.62629287, 3.27490458, 2.97489496, 7.21110255, 24.20743687, 14.08012784, 4.68241391, 8.70488369
3.66401419, 2.62202212, 2.51992063, 6.44786786, 24.40184419, 12.37234820, 4.89642727, 11.27275477
3.07408523, 2.64575131, 2.28035085, 5.85234996, 24.25438105, 15.53785700, 4.95983871, 13.45826883
2.97069016, 2.87228132, 2.69258240, 5.96657356, 24.79768134, 17.09824552, 4.08350340, 11.34680572
3.00832179, 2.97489496, 2.85043856, 6.71006706, 26.10507613, 19.88215280, 5.18893053, 9.61509230
3.07814879, 2.61247010, 3.06594194, 6.98927750, 24.89377432, 19.03549316, 5.53172667, 10.81203034
3.43511281, 2.02484567, 2.95803989, 6.29285309, 23.90711191, 15.05240845, 4.85283422, 11.57475702
3.15832234, 1.88414437, 2.28035085, 6.22494980, 28.55126967, 13.70675016, 4.70106371, 12.59265659
2.85919569, 2.07364414, 1.93649167, 5.19615242, 28.93268048, 11.57907596, 3.91471583, 11.07700320
2.98747385, 2.38746728, 2.46981781, 4.52216762, 27.37791080, 10.78772451, 6.03324125, 15.74404649
3.96862697, 2.95803989, 2.72029410, 5.30565736, 27.25940205, 13.74045123, 6.48459713, 19.26720011
4.11096096, 3.27871926, 2.52487623, 5.22254727, 23.74868417, 13.84196518, 5.28677596, 15.21594558
3.13847097, 3.33916157, 2.36643191, 4.79583152, 21.88149903, 12.33490981, 6.24499800, 12.94604187
2.77938842, 2.94108823, 2.44948974, 5.20816666, 25.25866188, 12.95858789, 6.40312424, 11.95094139
3.30529878, 2.78388218, 2.41350368, 5.61248608, 23.93428503, 11.03517105, 5.51135192, 9.37683315
3.45687720, 2.78388218, 2.21359436, 5.31272058, 21.54994200, 12.55587512, 4.93457192, 12.15318888
3.42782730, 2.68793601, 2.39791576, 5.69209979, 27.20891398, 15.24057086, 5.73585216, 17.37958573
3.65718471, 2.60768096, 2.41350368, 6.00832755, 29.04737510, 13.67113748, 5.61693867, 15.18634255
3.48926926, 2.24722051, 2.33452351, 5.92452530, 25.46173600, 14.47152376, 4.95731782, 10.22619186
3.62284419, 2.96647939, 2.65518361, 7.29554659, 29.25405955, 15.02081889, 5.01996016, 12.91123542
4.48330235, 3.49284984, 3.42417873, 9.32067594, 32.93212717, 12.18400591, 5.83309523, 13.10057251
4.19523539, 3.05777697, 3.16622804, 8.08702665, 29.97290443, 14.46720429, 6.03324125, 9.88812419
3.51425668, 3.67083097, 2.68328157, 6.19879020, 33.08700651, 16.13226580, 4.95731782, 9.91841721
3.66742416, 3.92109679, 2.93683503, 7.08166647, 32.38402384, 13.72133375, 4.68774999, 10.89610022
3.47131099, 3.48209707, 2.95803989, 6.63701740, 27.26627954, 12.59464172, 5.02493781, 9.45251289
3.43874977, 3.16622804, 2.74317334, 6.85747767, 28.70888364, 13.53698637, 5.17445649, 9.16651515
3.65718471, 2.31840462, 2.40312297, 6.54980916, 30.83950389, 16.60496914, 4.98748434, 8.94846356
4.12613621, 1.98116128, 2.28582589, 5.10636857, 30.16206226, 15.93580873, 5.17445649, 9.12140340
4.28660705, 2.73404462, 1.96214169, 4.35028735, 31.68398649, 15.49354704, 5.87154154, 12.58570618
4.60977223, 3.04959014, 2.21359436, 4.56344168, 27.83163667, 15.76388277, 6.10327781, 13.87894088
4.32723930, 2.71569512, 2.47991935, 5.13322511, 23.88723508, 12.30040650, 5.32212364, 13.09675532
4.16833300, 2.60768096, 2.56417628, 5.78143581, 24.13607259, 15.91775738, 5.24166004, 13.13963470
4.43283205, 2.77488739, 2.35584380, 5.93717104, 21.19315927, 20.05180790, 5.53624421, 13.42292815
3.94334883, 2.97069016, 2.41350368, 6.13188389, 22.66219319, 21.53659676, 4.61789996, 13.39682798
3.18982758, 2.65047166, 2.44948974, 6.54980916, 29.93117104, 18.91758441, 4.33012702, 12.61051149
3.47131099, 2.92403830, 2.69258240, 6.49422821, 30.51065388, 15.26269963, 6.67645115, 11.36331818
4.13521463, 3.15436206, 2.85043856, 6.53452370, 23.23198227, 16.08026741, 8.55277733, 9.72753823
4.37321392, 2.97069016, 2.90258505, 6.68954408, 24.16609195, 18.46212339, 8.52789540, 10.18086440
4.28369000, 3.14642654, 3.41686991, 7.50832871, 30.25846989, 18.78230550, 7.69902591, 11.87855210
3.75832409, 3.10241841, 3.38008876, 7.75241898, 30.00874872, 20.64037306, 7.69415362, 12.71613149
3.52491135, 2.95381110, 2.74317334, 6.66708332, 26.23880714, 19.37330638, 6.62570751, 12.66589910
3.72827038, 2.74317334, 2.56417628, 6.21490145, 26.79458901, 13.81575188, 4.66904701, 10.78540681
4.93710441, 2.51992063, 2.72488532, 6.61437828, 26.09022806, 14.38228076, 4.45813863, 11.41161689
5.00499750, 2.59326050, 2.20794022, 6.17251974, 27.64823683, 14.07480018, 4.41871022, 12.59265659
3.41320963, 2.30217289, 2.35584380, 5.81377674, 28.34519360, 16.47877423, 4.43001129, 12.49299804
3.33916157, 2.61725047, 2.62678511, 6.03324125, 31.21538082, 19.35135654, 4.42718872, 12.70432997
3.72155881, 2.89827535, 2.39791576, 5.63027530, 33.65969400, 18.15764302, 5.71401785, 12.27090054
3.89230009, 3.10241841, 2.27486263, 4.82700735, 31.29616590, 32.29628462, 13.52774926, 17.37383090
4.07124060, 3.56370594, 2.25277607, 4.35603030, 28.60812822, 37.52798955, 16.13459017, 19.43836413
5.30330086, 3.25576412, 2.61725047, 5.77061522, 30.16247669, 28.98792852, 16.63430191, 16.02107986
5.18652099, 2.61247010, 2.83725219, 6.91194618, 30.01791132, 25.02898320, 15.55956298, 14.69268525
3.27871926, 2.63628527, 2.57390754, 5.54301362, 25.61249695, 22.15118507, 10.94646062, 14.11205159
3.81444622, 2.71569512, 2.10950231, 4.36176570, 29.04952667, 16.55823058, 8.48822714, 13.66199107
4.72228758, 2.51992063, 2.01866292, 4.69840398, 28.66531005, 12.47096628, 8.06690771, 16.70104787
4.72757866, 2.81513765, 2.35584380, 5.04727649, 28.57446412, 15.90282994, 8.05450185, 16.58764601
4.32145809, 2.84604989, 2.59807621, 6.13392207, 30.70138433, 21.73016337, 6.70261143, 13.79130161
4.95227221, 3.15039680, 2.71569512, 5.98122061, 25.80503827, 21.61654459, 6.01664358, 13.68849882
4.76707457, 3.23651047, 2.26936114, 5.34555890, 24.98999800, 17.76794867, 5.02742479, 11.63077813
4.30406784, 2.83284309, 2.17944947, 5.78575838, 28.24314076, 16.94845126, 5.69209979, 7.72334125
4.43001129, 2.86792608, 2.87662997, 5.87154154, 28.75413014, 15.96715379, 5.00000000, 8.58195782
3.71146871, 2.72029410, 2.71569512, 5.78359750, 31.56897211, 16.98234377, 5.54075807, 9.98749218
4.11703777, 2.61247010, 2.36114379, 6.47302093, 30.43928383, 18.48715770, 6.36396103, 10.03369324
4.60705980, 2.93683503, 2.31840462, 6.02909612, 27.26857165, 18.79893614, 5.62805473, 10.31018914
4.07430976, 2.81513765, 2.48495473, 5.10636857, 28.88771365, 22.28788909, 6.05392435, 10.98749289
4.15632049, 3.12249900, 2.55929678, 5.22015325, 26.07728897, 23.65692288, 6.43039657, 12.33592315
4.14427316, 3.10241841, 2.19658826, 4.68508271, 24.31563283, 18.19477947, 5.81807528, 11.36441815
3.43147199, 2.77488739, 2.07364414, 4.62331050, 27.04671884, 14.32480366, 6.03531275, 10.41753330
3.97177542, 3.08220700, 2.21359436, 5.91819229, 28.10293579, 15.41265714, 6.01872079, 12.97497592
4.19821391, 2.61247010, 2.13307290, 5.87154154, 24.28219512, 18.49189011, 6.18667924, 13.01057262
4.02492236, 2.72488532, 2.05548048, 4.53872229, 23.62043607, 18.87193684, 7.04450140, 10.41273259
4.10791918, 2.98747385, 2.04939015, 4.19225476, 27.75022522, 13.92569567, 6.76202632, 11.10630452
3.75166630, 2.74772633, 2.31300670, 6.14206806, 30.96005491, 14.25570061, 5.42908832, 12.41470902
3.53553391, 2.86356421, 2.52487623, 6.42456224, 26.25976009, 16.75261174, 4.65026881, 11.56179052
3.22102468, 2.94108823, 2.54460213, 5.08674749, 17.71369527, 15.49031956, 4.80364445, 11.44443096
3.60555128, 3.08625987, 2.57875939, 6.03116904, 23.52020408, 12.55388386, 5.35490429, 11.69829047
3.48926926, 3.09838668, 2.58843582, 7.65996084, 24.48571012, 12.68069399, 5.15994186, 9.59166305
2.77938842, 2.53475837, 2.37170825, 6.62947962, 19.95244346, 11.43787568, 4.18031099, 8.78208404
3.32039154, 2.29128785, 1.93649167, 4.37607130, 27.22774320, 12.68956264, 4.04351332, 11.53256259
3.89551024, 2.44948974, 2.06760731, 5.19615242, 32.39945987, 18.60577867, 5.74238626, 16.58915308
3.91152144, 2.69722079, 2.75227179, 6.10532554, 26.55607275, 17.06092026, 6.49037749, 15.57963414
3.55316760, 2.99583044, 3.00416378, 5.68110905, 19.22498375, 11.87855210, 5.35490429, 12.59464172
3.54259792, 3.10241841, 2.62678511, 4.89642727, 22.26768960, 15.40941271, 5.34555890, 14.18009168
4.37607130, 3.00832179, 2.76586334, 6.53452370, 21.44702777, 15.91304496, 7.14492827, 12.35617255
4.02492236, 2.45458754, 2.43413229, 6.43234017, 18.47430648, 12.54591567, 6.27893303, 10.88117641
3.30907842, 2.53968502, 2.18517734, 4.75657440, 22.93577991, 13.75681649, 4.92188988, 12.18708333
3.32791226, 2.88963666, 2.67861905, 4.63950428, 21.95905280, 14.08722826, 5.02742479, 13.70583817
3.23264598, 2.58843582, 2.52487623, 4.84510062, 20.06676357, 12.84815162, 4.83476990, 12.47998397
4.54972527, 2.24722051, 2.20227155, 5.12835256, 23.77130623, 12.51898558, 5.28204506, 10.40432602
4.68774999, 3.17804972, 2.12720474, 4.63141447, 24.66019059, 12.16346990, 5.07937004, 10.26523258
3.43874977, 3.38378486, 2.26384628, 4.59891292, 24.83747169, 12.96051696, 5.58345771, 11.15347479
3.75832409, 2.93257566, 2.67394839, 5.27494076, 24.78608481, 13.52497689, 5.04975247, 10.72147378
4.06509532, 3.16622804, 2.78836870, 4.94216552, 24.86966023, 15.08144555, 4.24558594, 10.53802638
3.26726185, 3.02902625, 2.51495527, 4.72228758, 23.77708981, 14.76820910, 4.88108594, 11.21494539
3.86975451, 3.14245127, 2.38222585, 4.76707457, 19.43000257, 13.30319510, 5.47265932, 11.65332571
4.43846820, 3.45687720, 2.61247010, 5.34789678, 20.46093839, 15.62769977, 7.12214855, 15.95383966
4.23969339, 3.27490458, 2.40831892, 5.30330086, 22.31367294, 15.38099477, 7.76691702, 15.44182632
4.04351332, 3.23264598, 2.15638587, 4.10182886, 22.51166364, 12.89476638, 5.97285526, 9.75576752
3.65034245, 2.91547595, 2.56904652, 4.98998998, 22.05391122, 13.76045057, 5.34322000, 9.81707696
3.04548847, 3.33916157, 2.92831009, 6.80073525, 21.94139923, 12.85982115, 5.17445649, 9.94107640
3.56370594, 3.80460248, 3.04138127, 6.47495174, 21.60960435, 11.91322794, 4.31277173, 11.86170308
4.04969135, 3.52845575, 2.90688837, 4.95479566, 20.78881911, 14.50517149, 4.94216552, 13.30695307
3.57770876, 3.56721180, 2.81957444, 5.35723809, 22.02895821, 16.65983193, 5.89491306, 12.24132346
3.86005181, 3.39484904, 2.45458754, 5.10881591, 21.78302091, 14.93485855, 5.05470078, 10.45705503
3.99687378, 2.76134025, 2.36114379, 5.55427763, 25.00649916, 13.26367219, 4.11400049, 7.76047679
4.45252737, 2.09761770, 2.39791576, 5.93085154, 25.10577623, 14.22497803, 4.97995984, 9.91337480
4.32145809, 2.59326050, 2.23047080, 5.71182983, 26.71048483, 15.06983742, 4.85283422, 9.83234458
4.04660351, 3.09030743, 2.23606798, 6.00208297, 27.63557490, 14.39791652, 5.37121960, 10.44389774
3.88908730, 3.14642654, 2.10356840, 4.68241391, 25.06042697, 12.44387399, 4.70903387, 10.67122299
3.10241841, 2.88530761, 2.47991935, 5.61471282, 25.47793163, 15.23072552, 4.41871022, 7.16589143
3.48926926, 2.52487623, 2.76586334, 6.20080640, 22.28957155, 17.42412121, 4.53596737, 9.15286840
3.83731677, 2.92403830, 2.51495527, 4.78016736, 18.04092570, 17.05212597, 3.74165739, 10.19068202
3.43874977, 2.86792608, 2.12720474, 4.27492690, 17.68544599, 15.92246840, 4.12916456, 9.51314880
3.41320963, 2.37697286, 2.05548048, 4.01870626, 17.64369576, 15.60208319, 5.46122697, 11.81947545
4.37892681, 2.47487373, 2.15058132, 4.70106371, 20.87402692, 15.60448653, 5.29386437, 13.38095662
4.33877863, 2.15638587, 2.19089023, 5.25594901, 26.16677282, 15.16080473, 4.54422711, 11.54880946
3.44963766, 2.36643191, 2.64575131, 5.43599117, 23.50000000, 14.55335013, 5.00249938, 8.57467201
3.53199660, 2.64575131, 2.70647372, 5.50681396, 21.88492632, 13.49536958, 5.11126208, 7.62397534
3.61247837, 2.56417628, 2.17370651, 5.28677596, 23.80808686, 13.06330739, 4.86055552, 9.97246208
3.60208273, 2.36643191, 1.83711731, 5.28677596, 22.90851370, 13.34260095, 4.27200187, 11.69722189
3.73162163, 2.29673682, 1.89736660, 5.23688839, 26.10890653, 16.23499307, 4.50277692, 11.55638352
3.60555128, 2.59807621, 2.15638587, 4.76182738, 24.35877665, 16.20339471, 5.25119034, 11.52714188
3.97492138, 3.08625987, 2.42383993, 5.84807661, 24.23633636, 15.76705426, 6.03116904, 11.39627132
3.86005181, 2.96226265, 2.35584380, 5.73367247, 26.82396317, 15.82324240, 5.19855749, 9.93604549
3.91471583, 2.60288302, 2.21923410, 4.06201920, 21.56733641, 14.17744688, 4.28952212, 9.63197799
3.87620949, 2.99165506, 2.37697286, 5.14781507, 16.59442678, 13.50000000, 4.46094160, 10.50119041
3.71483512, 2.90258505, 2.40312297, 5.19615242, 25.39537359, 14.93067313, 4.47772264, 11.66940444
3.60208273, 2.70647372, 2.13307290, 4.00624512, 25.68219227, 14.71393897, 5.35023364, 14.30122372
3.13847097, 2.46475151, 2.20794022, 5.07937004, 21.07308710, 15.00249979, 5.32212364, 13.88884444
3.00832179, 2.20794022, 2.42383993, 5.11370707, 27.76598639, 18.76432786, 3.97806486, 11.49782588
2.60288302, 2.25831796, 2.21359436, 3.54964787, 27.97320146, 17.92832954, 3.06186218, 10.61484809
2.97909382, 2.40312297, 2.09761770, 3.82426464, 27.14083639, 13.98749441, 3.34664011, 9.51314880
3.30151480, 2.48997992, 2.01866292, 4.00624512, 25.31748408, 12.85982115, 4.62331050, 8.33066624
3.48926926, 2.27486263, 1.84390889, 3.73162163, 23.87571988, 12.12023102, 4.98497743, 10.03742995
3.87943295, 2.77037904, 2.36114379, 5.50227226, 27.17535648, 12.20040983, 4.55521679, 10.96243586
3.82426464, 2.97069016, 2.61725047, 6.19879020, 26.93093017, 15.05572981, 4.41871022, 9.48156105
3.78483817, 2.74317334, 2.39791576, 5.27494076, 28.15626041, 16.24115144, 4.53596737, 11.54014731
4.04351332, 2.60768096, 2.31300670, 5.56776436, 30.20389048, 14.85681662, 5.19855749, 14.22409927
3.65034245, 2.36114379, 2.46475151, 6.35806574, 25.86600085, 14.23639702, 5.25357021, 13.19280107
3.53906767, 2.50499501, 2.71569512, 5.96866819, 24.25180406, 17.08508121, 7.13267131, 11.81418639
4.15331193, 2.65518361, 2.58360214, 5.65243310, 24.00468704, 17.63022972, 7.43807771, 11.85116028
3.94968353, 2.80624304, 2.15058132, 5.71839138, 21.69446934, 16.21264938, 5.34555890, 10.58300524
5.27494076, 3.28252951, 2.44438131, 5.66347950, 24.61198895, 18.24280680, 4.77755167, 10.36822068
7.18505393, 3.17017350, 2.45458754, 5.55877684, 28.93700054, 18.65207763, 4.95983871, 13.23064624
6.03531275, 2.45458754, 2.09761770, 4.60977223, 26.97776863, 15.58043645, 4.50277692, 12.06648250
3.78483817, 2.44438131, 2.45458754, 4.87083155, 25.44258242, 13.32478893, 4.44409721, 8.23559348
5.46351535, 3.01247407, 2.65047166, 5.87792480, 28.09225872, 13.95797263, 5.03984127, 8.04363102
5.82880777, 2.95381110, 2.54460213, 5.70745127, 26.44428105, 19.45893111, 4.75131561, 7.85175140
4.75920161, 2.37697286, 2.36643191, 5.10636857, 20.76655966, 18.16177304, 5.66347950, 11.47279391
5.72494541, 2.20227155, 2.05548048, 4.64219776, 24.46323773, 15.04908635, 5.82237065, 12.03640312
5.24642736, 2.12132034, 2.07966343, 4.56070170, 28.63913407, 16.98455180, 5.87579782, 10.69111781
3.76828874, 2.94533530, 2.49499499, 4.47493017, 27.42489745, 12.98460627, 5.56102509, 11.62647840
3.83405790, 3.51781182, 2.50998008, 4.97744915, 27.76013328, 15.47417203, 4.11400049, 10.85472247
3.69120577, 3.05777697, 2.28582589, 5.02244960, 24.50051020, 17.88435070, 5.39444158, 9.66048653
4.11096096, 2.59326050, 2.29128785, 4.77231600, 22.32151429, 16.72498132, 5.95608932, 9.49473538
5.10881591, 2.66926956, 2.45967478, 5.04975247, 22.55382451, 16.81665841, 5.09165985, 10.01873245
5.16962281, 2.78388218, 2.29128785, 4.71963982, 26.72826220, 15.79952531, 6.23698645, 10.66887998
4.32723930, 2.47991935, 2.37697286, 5.03239506, 26.13570355, 16.47877423, 6.27495020, 10.88002757
3.78483817, 2.46981781, 2.59326050, 5.35023364, 24.60894146, 18.67284124, 5.25832673, 13.51850583
2.96226265, 2.59326050, 2.39791576, 5.31742419, 23.72129845, 18.52498313, 5.54301362, 15.75119043
3.22877686, 2.90258505, 2.46475151, 4.81923230, 22.47498610, 14.08634090, 5.36656315, 13.50462884
3.82753184, 3.07814879, 2.53475837, 4.52216762, 29.86343919, 14.57909462, 4.76707457, 10.38147388
4.13823634, 2.91547595, 2.60288302, 5.52268051, 30.78433043, 18.08452377, 5.06458290, 10.42832681
3.95284708, 2.64575131, 2.62202212, 5.02991054, 24.93792293, 19.70596356, 6.86294397, 11.92371586
3.47491007, 2.60288302, 2.63628527, 4.23969339, 20.11715686, 19.24967532, 6.39921870, 11.41490254
3.48926926, 2.77938842, 2.36114379, 5.09411425, 23.49414821, 16.65683043, 4.12613621, 11.20044642
3.51069794, 2.38222585, 2.37697286, 6.16035713, 23.14627400, 15.44506394, 4.92188988, 12.64911064
3.42782730, 2.36643191, 2.64575131, 5.54752197, 18.73099036, 15.11125408, 5.71620503, 11.68760027
3.11448230, 2.32916294, 2.28035085, 4.42718872, 25.38454254, 14.18714207, 4.39033028, 8.94147639
4.46374282, 2.19089023, 2.22485955, 5.06705042, 26.47640459, 15.34763825, 3.34664011, 7.06929982
4.57984716, 2.46475151, 2.30217289, 5.14295635, 22.90523958, 14.47929556, 3.78813938, 5.80947502
3.46049129, 3.10644491, 2.62202212, 6.17656863, 23.20398673, 14.33875866, 4.24558594, 7.46156820
3.52136337, 3.40954542, 2.57875939, 6.29086640, 24.14280431, 17.78131041, 5.67890835, 10.93389226
3.59513560, 2.66458252, 2.36114379, 4.59347363, 21.72613633, 14.86522788, 5.40832691, 11.15011211
3.65034245, 2.52487623, 2.55440795, 5.42217668, 21.43944962, 11.44989083, 4.04351332, 9.25067565
3.42052628, 3.19765539, 2.68793601, 5.89915248, 27.92400401, 13.76045057, 4.63680925, 10.42712808
3.66742416, 2.95381110, 2.88097206, 5.51135192, 26.39744306, 13.56281682, 4.96487663, 10.89380558
3.32415403, 2.55440795, 2.75227179, 5.60133913, 21.69735007, 10.37786105, 4.23969339, 11.27718937
2.93257566, 2.43413229, 2.21359436, 5.27730992, 21.58297941, 12.17476899, 4.78800585, 14.84503284
3.40954542, 2.46981781, 2.06155281, 6.00208297, 22.15626322, 15.07895885, 6.21087755, 14.41266804
3.81116780, 2.47991935, 2.28035085, 5.98122061, 23.87990787, 18.49459380, 5.57673740, 10.26645021
3.64691651, 2.88963666, 2.46475151, 5.04479930, 22.80789337, 19.10562744, 4.63411264, 9.81962321
3.38747694, 2.84604989, 2.44948974, 5.38284311, 20.41323100, 14.39270649, 5.41756403, 9.49736806
3.13049517, 2.02484567, 2.23047080, 5.53172667, 21.03687239, 20.64340088, 5.59464029, 9.77241014
3.33166625, 2.17370651, 2.29673682, 5.20096145, 22.53441812, 23.45101277, 5.59464029, 12.81600562
4.06201920, 2.52487623, 2.33452351, 6.41482658, 22.03633363, 15.51209206, 5.19615242, 12.67773639
3.60555128, 2.77488739, 2.55440795, 6.87749955, 26.73340607, 12.62636131, 5.41063767, 9.93730346
3.03726851, 2.56417628, 2.51495527, 5.87154154, 24.87569095, 16.04914328, 6.04772685, 10.16734970
3.56370594, 2.10950231, 2.05548048, 5.60802996, 20.61431541, 17.02204453, 6.24499800, 12.20245877
3.73496988, 2.22485955, 1.95576072, 5.46580278, 25.72353008, 15.66604609, 6.88839604, 11.51412176
3.65034245, 2.91976026, 2.40312297, 5.61916364, 28.09893236, 14.56966026, 6.35413251, 8.94427191
4.11096096, 3.69459064, 2.69722079, 6.16441400, 27.77228835, 12.14598699, 4.53321078, 7.79583222
4.15030119, 3.64691651, 2.37697286, 6.70820393, 28.54601548, 10.62779375, 3.63661931, 9.87294282
4.34741302, 3.04548847, 2.41350368, 6.38944442, 24.44432449, 16.96393233, 4.49165894, 11.19263150
5.03984127, 2.65047166, 2.67861905, 5.77494589, 30.78230011, 16.87527778, 5.27730992, 10.72263960
4.83735465, 2.51495527, 2.77037904, 5.46580278, 33.27837135, 13.50092589, 5.84166072, 11.45753027
3.93382765, 2.30759615, 2.36643191, 4.87083155, 25.65833198, 14.72158280, 6.18263698, 11.55962802
3.28252951, 2.51992063, 2.59807621, 5.52268051, 22.63791068, 15.18469624, 6.02287307, 12.12126231
4.19821391, 2.78836870, 2.85919569, 5.77278096, 20.72438178, 14.08545349, 4.58530261, 11.38200334
4.33589668, 2.65047166, 2.45967478, 5.74456265, 23.79127992, 14.73770674, 3.61593695, 7.90253124
3.49642675, 2.48997992, 2.54950976, 5.64136508, 24.81380664, 19.44093619, 5.89915248, 10.91329464
3.78483817, 2.56904652, 2.09165007, 4.99749937, 24.40799049, 20.30147778, 5.75977430, 12.23417345
3.33916157, 2.93683503, 1.92353841, 4.70106371, 21.58182105, 15.10629008, 3.85032466, 10.23474475
3.38008876, 2.74317334, 2.25277607, 5.04975247, 18.50743094, 12.16141439, 4.80624594, 10.28834292
4.19225476, 2.46981781, 2.47487373, 4.88620507, 18.03953991, 14.05702671, 4.87083155, 8.91908067
4.26614580, 2.47991935, 2.31840462, 5.08674749, 22.16979928, 18.12939602, 4.35889894, 8.81759604
4.48330235, 2.67861905, 2.32916294, 5.60802996, 26.60028195, 18.30573681, 5.44977064, 11.87539473
4.66904701, 3.60901649, 2.72029410, 5.46122697, 26.63691048, 15.77498019, 5.45664732, 11.37541208
3.91471583, 4.08962101, 2.52487623, 5.74020906, 23.58336278, 15.32318505, 4.59891292, 9.26957388
3.57421320, 3.43511281, 2.25831796, 4.97242396, 22.15400641, 12.30447073, 4.92442890, 11.08940936
3.95600809, 2.75680975, 2.23606798, 5.06211418, 22.00397691, 16.18255233, 4.37607130, 13.27591805
3.35782668, 2.71108834, 2.04939015, 5.07444578, 23.07162760, 18.30163927, 4.35028735, 12.84717868
3.13847097, 2.72029410, 2.00624026, 4.75394573, 21.42078430, 16.73021219, 5.12835256, 9.86280893
3.38378486, 2.69258240, 2.14476106, 4.67172345, 18.75099997, 17.36951352, 5.03736042, 8.28100235
3.64691651, 2.55929678, 2.46981781, 4.53596737, 24.95495943, 15.52659010, 4.50555213, 8.46758525
3.48926926, 2.63628527, 2.35053185, 4.47493017, 27.68122107, 15.00083331, 3.45325933, 8.82468130
3.60555128, 3.01662063, 2.26384628, 4.81404196, 22.98749660, 15.52497987, 4.33012702, 7.69252884
3.39116499, 2.92403830, 2.32916294, 5.26070338, 25.34561106, 14.16950952, 4.92188988, 6.70820393
2.95803989, 2.54950976, 2.37170825, 5.43369119, 27.38840996, 14.48706319, 4.94974747, 8.94846356
3.44601219, 2.63153947, 2.59807621, 5.14781507, 25.12568407, 16.30720700, 4.92188988, 12.83744523
3.92746738, 2.57390754, 2.29128785, 3.76828874, 23.01901388, 16.44536409, 5.16478460, 13.33510405
4.07124060, 2.90258505, 2.36114379, 4.40738017, 28.82750423, 14.49655131, 5.05964426, 10.10940156
3.97806486, 3.14245127, 2.42383993, 5.77061522, 29.68669736, 11.83849653, 4.39317653, 11.16691542
3.93700394, 3.21714159, 2.40831892, 5.83737955, 22.56656819, 12.30040650, 4.59347363, 12.02497401
3.47491007, 3.31285375, 2.52487623, 5.64358042, 19.93740204, 12.96148140, 5.28204506, 13.25613066
3.42417873, 2.95381110, 2.28582589, 5.13565965, 16.02186007, 11.07587468, 5.65243310, 12.54890433
3.24422564, 2.65988722, 2.12720474, 4.96235831, 20.02748112, 12.78475655, 5.03239506, 8.39344983
3.51069794, 2.79284801, 2.31300670, 5.33151011, 26.44333564, 13.45362405, 4.81923230, 12.09752041
4.05585996, 2.87228132, 2.34520788, 4.23083916, 26.67958021, 15.43696861, 4.54697702, 11.68332145
3.36526373, 3.04548847, 2.13307290, 4.38748219, 25.12667905, 15.01082942, 3.60901649, 7.53823587
3.13049517, 2.95803989, 2.31840462, 5.28913982, 28.96290731, 16.70104787, 4.00000000, 9.59557190
3.56019662, 2.50000000, 2.30217289, 5.44058820, 25.56951310, 16.63204738, 4.44409721, 9.89191589
3.68781778, 2.51992063, 2.04328167, 5.31272058, 21.26323117, 12.07373182, 4.56344168, 10.92359831
3.38008876, 2.94108823, 2.39791576, 5.19855749, 23.21745033, 14.28198166, 4.62601340, 11.22831243
3.46410162, 2.91118533, 2.30759615, 4.92696661, 26.47829300, 15.41914395, 3.79143772, 8.56300181
3.54612465, 2.84604989, 2.02484567, 4.61248306, 27.23508766, 13.24197870, 3.97177542, 7.30410843
3.22102468, 2.83725219, 2.00624026, 3.94968353, 24.71537983, 15.85244461, 4.09572948, 8.84024887
3.51425668, 2.83725219, 2.16794834, 5.09165985, 24.95495943, 17.27353467, 4.30697109, 10.64424727
3.86328875, 2.95381110, 2.38746728, 5.71182983, 25.45879023, 13.27780102, 5.83523778, 12.27904719
4.86312657, 3.07001629, 2.40831892, 5.27730992, 26.06817984, 13.73135099, 5.71839138, 17.19156770
4.90917508, 3.24807635, 2.61725047, 5.86515132, 25.45780823, 13.22308587, 4.28077096, 15.39724001
3.63318042, 3.35037311, 2.44438131, 5.92241505, 21.37697359, 15.98827696, 4.56070170, 10.71330948
2.94533530, 2.86792608, 2.02484567, 4.91172068, 25.54065387, 16.94697613, 5.20336430, 12.38850273
3.42782730, 2.55440795, 2.13892496, 4.61248306, 26.12565789, 12.50699804, 5.31742419, 11.04875559
3.78483817, 2.98747385, 2.27486263, 4.75394573, 22.10147054, 12.06751839, 5.42678542, 11.03743630
3.42782730, 3.30907842, 2.25831796, 5.10636857, 22.19121448, 13.30413470, 5.45664732, 10.14396372
3.23651047, 3.27871926, 2.26384628, 6.09713047, 18.92088793, 15.85481000, 5.60802996, 10.79004171
3.51425668, 2.70647372, 2.42899156, 6.42261629, 22.16134021, 18.45535153, 5.79223618, 12.17476899
3.71483512, 2.48495473, 2.56904652, 6.53069675, 27.26077769, 17.82764707, 5.47037476, 11.53473017
3.51781182, 2.26936114, 2.38746728, 5.22972275, 28.49254288, 15.38749492, 5.18411034, 10.13533423
3.35037311, 2.01246118, 2.13892496, 4.77231600, 23.70232056, 14.96996994, 5.84807661, 8.57321410
3.51425668, 2.33452351, 1.98116128, 4.99249437, 20.80324494, 15.34112121, 5.44518136, 10.06354808
3.78813938, 2.76586334, 2.36114379, 5.30094331, 21.54878187, 14.39704831, 4.03112887, 11.98540779
3.89230009, 3.03315018, 2.63153947, 6.04152299, 20.05617112, 14.37532608, 4.76445170, 9.87800587
3.92109679, 3.31662479, 2.33452351, 5.18893053, 23.06295731, 16.68457371, 5.13809303, 7.39425453
4.10791918, 2.86356421, 1.83711731, 3.82426464, 23.40566171, 15.69872606, 4.76707457, 11.34239834
4.59075157, 2.30759615, 2.01246118, 4.51109743, 22.20078827, 15.39724001, 4.96990946, 12.90058138
4.33589668, 2.36114379, 2.44948974, 5.65022123, 22.85224278, 18.72164523, 4.71168760, 11.72070817
3.64348734, 2.38222585, 2.61247010, 5.29386437, 22.55548714, 17.60823671, 4.65564174, 9.42337519
3.95916658, 2.94533530, 2.62202212, 4.34453680, 23.10681718, 14.91727187, 4.80624594, 9.60989074
3.83079626, 3.07814879, 2.35053185, 4.11703777, 20.02560860, 12.97304899, 4.67974358, 10.00624805
3.70809924, 2.85919569, 2.22485955, 5.26782688, 23.51435732, 14.89714738, 4.55521679, 9.19102823
4.66100847, 2.90258505, 2.42383993, 6.83556874, 29.65130689, 18.21675053, 4.39033028, 10.62779375
4.54697702, 2.88530761, 2.31300670, 6.17251974, 26.97406161, 16.40579166, 4.27784993, 12.03744159
3.58120092, 2.58843582, 2.13307290, 4.46094160, 24.14125100, 12.97593927, 3.80788655, 12.54093298
3.79802580, 2.72488532, 2.57390754, 5.79655070, 24.72195381, 14.23288446, 4.12613621, 11.24055159
3.87620949, 3.33166625, 2.69258240, 6.31070519, 24.50867193, 17.25543393, 5.37587202, 8.71206061
3.61593695, 3.55316760, 2.68328157, 5.34789678, 19.86139471, 17.00882124, 6.34428877, 11.06797181
3.95916658, 3.01247407, 2.55929678, 4.89642727, 16.29186914, 16.02107986, 5.59240556, 12.43181403
4.34453680, 2.48495473, 2.33452351, 5.56102509, 21.70829335, 16.82483284, 4.01559460, 9.42867965
4.35315977, 2.47991935, 2.44948974, 5.81807528, 25.82295490, 14.08456602, 4.45813863, 8.66602562
3.63318042, 2.59326050, 2.30759615, 5.21536192, 26.69503699, 11.72710535, 5.45893763, 9.86534338
3.63661931, 3.14245127, 2.09761770, 4.49444101, 22.78376615, 15.94835415, 5.10147038, 9.52759151
4.46094160, 3.57071421, 2.42383993, 5.27019924, 24.76691341, 16.72423391, 4.91680791, 9.41142922
4.72757866, 3.16622804, 2.52982213, 6.11964051, 28.09715288, 14.77413280, 5.69649015, 10.65715722
4.16233108, 2.50000000, 2.22485955, 5.18652099, 23.36824769, 16.12141433, 5.05470078, 11.58770901
3.61593695, 2.53968502, 2.09761770, 4.58257569, 22.10882177, 19.33067510, 6.46142399, 11.54772705
3.32415403, 2.40831892, 1.90394328, 6.26697694, 25.21358761, 18.25719036, 6.76202632, 12.97015806
3.13448560, 2.37697286, 2.30217289, 6.66520817, 25.48872300, 14.40052082, 4.75394573, 11.98436481
3.06594194, 2.65047166, 3.04548847, 5.18411034, 22.56158239, 12.18400591, 4.59891292, 8.22040145
3.39116499, 2.54460213, 2.70185122, 4.81404196, 24.03643068, 11.21940284, 4.58530261, 8.88819442
3.90192260, 2.64102253, 2.17370651, 5.22972275, 23.88409513, 13.19753765, 4.66368953, 10.85126721
3.81772183, 2.66458252, 2.37170825, 5.65906353, 22.39307929, 13.24292264, 6.23297682, 11.19374826
3.81116780, 2.53968502, 2.38222585, 5.71620503, 29.18561289, 13.25518766, 5.91819229, 11.88591604
4.00624512, 2.65988722, 2.25831796, 5.02493781, 29.64666929, 16.65607997, 4.53872229, 10.83397434
4.53872229, 2.81513765, 2.20227155, 4.22788363, 25.65881915, 17.47641268, 5.87792480, 8.93588272
4.39033028, 2.91547595, 2.35584380, 4.94469413, 27.06150402, 14.26534262, 5.68990334, 10.16734970
3.58817502, 2.85482048, 2.88530761, 5.95399026, 25.66320323, 12.52697090, 6.04152299, 12.01457448
4.35028735, 3.22490310, 2.82400425, 5.73149195, 25.79680213, 13.85550432, 6.76572243, 13.89154419
4.86569625, 3.12649964, 2.21923410, 6.00208297, 32.08660157, 15.04327092, 5.67230112, 12.11919964
3.86005181, 2.81513765, 2.56417628, 6.13595958, 31.51785208, 16.60948524, 5.38516481, 8.84024887
3.33916157, 2.87662997, 2.61725047, 5.07937004, 25.08136759, 15.92953232, 6.06423944, 8.29005428
3.51781182, 2.40831892, 2.30759615, 4.90662817, 25.30810147, 14.35357098, 5.56776436, 10.64776972
3.58468967, 2.53475837, 2.75680975, 5.92452530, 28.27587311, 14.16245035, 5.64800850, 12.29430763
4.25734659, 2.91976026, 2.92403830, 6.66145630, 26.40549185, 16.53481176, 6.56886596, 12.06958989
4.15932687, 2.53475837, 2.51495527, 5.37121960, 20.91291467, 15.75039682, 5.49317759, 12.23417345
3.55316760, 2.06760731, 2.20227155, 4.72228758, 20.45360604, 14.37184748, 4.59075157, 11.85116028
4.30116263, 2.32379001, 2.11541958, 6.43428318, 29.59645249, 14.72497878, 5.40601517, 11.10067566
4.27784993, 2.55929678, 2.28582589, 6.37965516, 29.47668570, 12.41470902, 5.90127105, 12.29939023
3.71819849, 2.57875939, 2.40831892, 6.16846821, 27.06566090, 12.96341005, 5.07444578, 14.73346531
3.86652299, 2.92831009, 2.37697286, 6.59734795, 26.77031939, 15.24631103, 4.65295605, 14.54046079
4.46654229, 3.04959014, 2.20794022, 6.18869938, 21.81169411, 15.13604968, 5.41525623, 11.04422926
4.74078053, 3.11046620, 2.52982213, 5.99166087, 22.48277118, 11.45207405, 5.54977477, 9.20461841
4.16833300, 2.94533530, 2.69258240, 5.90550591, 23.87310202, 10.27496959, 4.84767986, 10.09083743
3.41320963, 2.75680975, 2.52487623, 6.37965516, 26.73013281, 14.15185500, 4.97493719, 11.36661779
4.54147553, 3.09838668, 2.47487373, 6.19475585, 29.85046063, 16.70778262, 5.00499750, 11.69722189
4.83476990, 3.32791226, 2.45458754, 5.17445649, 27.59528945, 14.32742126, 3.83079626, 11.57151675
3.85356977, 2.96647939, 2.31840462, 5.66568619, 26.83700803, 14.18626096, 3.78813938, 12.46495086
4.23674403, 2.66458252, 2.20794022, 5.84166072, 26.22308144, 15.59406939, 4.84767986, 14.46115486
4.46374282, 3.01247407, 2.23606798, 4.67439836, 20.64582282, 14.41613679, 4.63411264, 12.58769240
4.23674403, 3.29393382, 2.39791576, 4.59619408, 25.39143556, 15.22169504, 4.29825546, 9.74935895
4.53872229, 3.22490310, 2.50000000, 5.18411034, 28.79713527, 17.32772345, 5.74891294, 9.62548700
4.30406784, 2.77938842, 2.36643191, 4.30406784, 24.68602844, 15.21348086, 6.04979338, 9.09807672
3.65034245, 2.57390754, 2.67394839, 5.64136508, 24.50153056, 17.74119500, 5.67890835, 10.35495051
3.84382622, 2.86792608, 2.42383993, 6.19273768, 23.59819908, 18.80757826, 5.10881591, 14.49137675
4.30987239, 3.08625987, 1.99374020, 4.91934955, 20.96067747, 14.97831766, 4.86826458, 15.20115127
3.98434436, 2.91976026, 2.28035085, 4.78016736, 21.87635710, 15.35740864, 5.66789202, 10.72846681
2.86356421, 2.41867732, 2.25277607, 4.71433983, 22.06127829, 14.56966026, 5.67230112, 11.40833029
3.05368630, 2.69258240, 2.10356840, 4.17432629, 19.26395598, 17.78693341, 5.73585216, 10.83858847
3.43147199, 2.84604989, 2.16217483, 4.78539445, 21.31666015, 16.86119806, 4.93963561, 7.11336770
3.40587727, 2.38222585, 2.20227155, 5.22254727, 26.21783744, 14.36227698, 5.55202666, 8.69770085
4.04042077, 2.50998008, 2.19089023, 4.66100847, 24.29248855, 14.70374102, 5.94138031, 10.64776972
4.38178046, 2.65047166, 2.07966343, 4.46374282, 22.37297477, 11.87960437, 4.97242396, 10.53802638
4.76707457, 3.04138127, 2.23047080, 4.87596144, 23.69335350, 11.98645068, 4.74078053, 12.88215820
4.37321392, 3.10241841, 2.36114379, 4.92442890, 25.97546920, 11.95407880, 4.55521679, 13.47126572
3.56370594, 3.01247407, 2.15058132, 4.09572948, 28.74804341, 14.93569550, 5.38284311, 12.58669933
3.89551024, 3.09030743, 2.09165007, 4.05277683, 29.75567173, 15.94208267, 5.18411034, 12.29125706
4.01248053, 2.71569512, 2.04328167, 4.59347363, 24.80977630, 16.96319545, 4.56891672, 10.93160555
4.45533388, 2.68328157, 2.27486263, 4.89642727, 23.60984964, 19.38878542, 5.15509457, 11.67582973
4.88108594, 2.68793601, 2.48495473, 5.32212364, 27.15050644, 16.84784853, 5.79223618, 10.54395561
4.65295605, 2.32379001, 2.56417628, 5.30801281, 24.87619344, 14.35966573, 5.78791845, 9.65012953
4.91172068, 2.55440795, 2.34520788, 4.97995984, 27.36375340, 15.94757035, 6.43622560, 14.09787218
4.39602093, 3.08625987, 2.04328167, 4.91934955, 28.21967399, 15.56036632, 6.82641927, 15.23236685
3.52491135, 2.89395923, 2.03715488, 4.29534632, 23.92488244, 14.86018169, 5.72057689, 11.28826825
3.97806486, 2.25277607, 2.25277607, 5.01996016, 24.37467949, 15.13770128, 4.03422855, 9.23715324
3.88908730, 2.24722051, 2.23606798, 5.00000000, 25.24034469, 16.98307981, 4.00624512, 9.15423399
3.66060104, 2.60288302, 2.02484567, 3.67763511, 23.05699460, 17.18429516, 4.95731782, 8.51175658
4.24264069, 3.05368630, 2.21923410, 4.28952212, 25.35497979, 15.71384740, 6.73795221, 10.71447619
4.93963561, 3.00000000, 2.40831892, 5.07444578, 28.72934040, 17.34358671, 6.80073525, 11.84905059
4.44971909, 2.62678511, 2.45458754, 5.47037476, 29.17918779, 16.06549097, 5.86941224, 13.51388175
4.51386752, 2.66458252, 2.20794022, 4.48330235, 26.06530261, 15.96558799, 6.06836057, 14.99666630
4.31566913, 2.74772633, 2.29673682, 4.63141447, 18.62055316, 19.74715169, 5.99791630, 13.58215741
3.32039154, 2.78836870, 2.86792608, 6.42845238, 14.12090649, 19.51730002, 5.93927605, 10.12052370
3.12249900, 2.60288302, 2.57390754, 6.11146464, 18.00833141, 15.18304976, 5.82666285, 9.45647926
3.28633535, 2.91976026, 1.98116128, 4.35889894, 22.86864666, 15.68916824, 5.35023364, 9.79157801
3.44601219, 3.39484904, 2.24722051, 4.20713679, 27.65998915, 17.09605218, 4.88876262, 8.51175658
3.33166625, 3.13847097, 2.34520788, 4.44128360, 28.07089240, 15.82166237, 5.35256948, 9.73010791
3.73162163, 2.80624304, 2.30217289, 4.70637865, 22.23229633, 14.75381307, 5.83952053, 11.43459663
4.40170422, 2.85043856, 2.16217483, 4.72228758, 19.69454239, 14.45683229, 4.90407993, 10.86853256
4.49165894, 3.05777697, 2.06155281, 3.98748041, 27.42079503, 16.96098464, 3.29393382, 9.81962321
4.13521463, 2.97489496, 2.75680975, 4.65832588, 26.35526513, 21.23440604, 4.05585996, 10.75523129
4.52493094, 2.68793601, 2.85043856, 5.31742419, 22.49166512, 19.17615707, 4.90153037, 10.03867521
4.57984716, 2.67394839, 2.20227155, 5.40832691, 23.19806026, 14.81384488, 4.84252001, 8.31414457
3.93064880, 2.80624304, 2.19658826, 5.30094331, 24.83092830, 14.95158854, 5.52946652, 10.11928851
3.89551024, 2.68793601, 2.40312297, 5.12835256, 23.44674818, 14.94991639, 6.45368112, 11.34239834
3.68781778, 2.49499499, 2.21923410, 4.70372193, 18.58695779, 14.14920492, 5.39212389, 8.69051207
3.27871926, 2.69258240, 2.07966343, 4.53596737, 20.85125895, 13.83383533, 4.79322438, 7.80544682
3.64348734, 2.62678511, 2.06155281, 4.96487663, 22.43490584, 15.17234326, 5.54752197, 7.73789377
3.76828874, 2.36114379, 1.95576072, 5.86301970, 24.54994908, 14.53444185, 4.82182538, 9.45912258
4.36176570, 2.64102253, 2.16794834, 5.70745127, 25.04296308, 13.33322917, 4.63680925, 11.74308307
4.28660705, 3.22490310, 2.61247010, 5.86088730, 25.30810147, 12.53295655, 4.57711700, 11.04875559
3.43147199, 3.21714159, 2.84165445, 5.79007772, 25.73664702, 14.37880384, 3.76164857, 10.45585960
3.72155881, 3.42782730, 2.77938842, 5.15994186, 30.28324619, 14.64923206, 5.03487835, 12.06544653
4.00312378, 3.11448230, 2.36643191, 5.43829017, 33.64335001, 13.93735986, 5.83523778, 12.00104162
3.94334883, 2.20794022, 1.95576072, 5.16962281, 30.68224242, 15.14265499, 4.76182738, 8.63712915
3.51069794, 2.96647939, 2.40831892, 6.29682460, 26.42205518, 15.43453919, 3.94017766, 9.42735382
3.06186218, 3.24037035, 2.81069386, 6.97674709, 28.53375194, 15.26679403, 4.48330235, 12.63229987
3.92428337, 2.74317334, 2.57875939, 6.53261050, 26.85982130, 13.10915710, 4.59075157, 11.51629281
4.30116263, 2.58843582, 2.21923410, 6.83008053, 25.92874852, 9.11866218, 4.56344168, 10.86047881
3.49284984, 2.55929678, 2.38222585, 6.36003145, 28.03257034, 12.66885946, 4.15632049, 9.77880361
3.60208273, 2.82842712, 2.81069386, 5.31742419, 29.69638025, 17.13548949, 4.06816912, 10.92016483
4.43846820, 3.10644491, 2.64102253, 4.69574275, 29.30273025, 15.81375983, 4.36749356, 13.70036496
4.02492236, 2.64102253, 2.03715488, 4.25734659, 26.20019084, 18.10041436, 4.54972527, 9.95991968
3.23651047, 2.37697286, 2.20227155, 4.97744915, 25.20763773, 17.87596151, 5.53398591, 10.96699594
3.94968353, 2.64102253, 2.20794022, 4.82700735, 23.87886094, 12.62339099, 5.41525623, 12.21883792
4.50000000, 2.20794022, 2.09165007, 5.79223618, 25.62567072, 13.67936402, 4.65832588, 12.22906374
4.31566913, 2.56417628, 2.56904652, 6.28092350, 23.09816010, 13.36974196, 4.58802790, 12.65207493
3.74833296, 3.60208273, 2.70185122, 5.11615090, 21.86321111, 12.98171791, 4.28369000, 11.11755369
3.73496988, 3.41320963, 2.46981781, 4.67974358, 22.45105788, 14.79019946, 4.65832588, 11.56719499
4.61519230, 2.90258505, 2.37170825, 5.03736042, 24.93641915, 13.76499183, 4.95983871, 8.67323469
4.60705980, 2.98328678, 2.74772633, 5.11859356, 29.28950324, 12.63526810, 5.09411425, 9.27631392
4.63141447, 3.25576412, 3.00000000, 5.19374624, 28.07579028, 12.55288811, 5.16720427, 10.74476617
4.69308001, 3.11046620, 2.55929678, 5.41063767, 23.78339757, 13.54621718, 4.59891292, 9.12962212
3.87943295, 2.47991935, 2.10950231, 5.10392006, 26.63033984, 13.24952829, 4.60163015, 9.62938212
3.99687378, 2.52487623, 1.94935887, 4.95731782, 27.66044107, 11.57259694, 4.46094160, 11.01249291
4.44409721, 2.81069386, 1.89076704, 5.37819672, 26.76751763, 14.03032430, 4.43283205, 13.21457529
4.27200187, 2.99583044, 2.03715488, 4.72757866, 25.56169008, 13.84377116, 4.19225476, 12.53195914
4.54147553, 2.97489496, 2.19658826, 5.88217647, 22.04880949, 15.57722697, 4.61519230, 11.70363191
4.47213595, 2.75227179, 2.31300670, 6.22294143, 27.60978088, 16.14852934, 5.16720427, 14.38488790
3.69459064, 2.89827535, 2.37170825, 4.60434577, 31.61052040, 15.54027027, 4.30987239, 13.22875656
3.92109679, 2.94957624, 2.48997992, 4.70372193, 29.21686157, 16.34625339, 3.85356977, 10.54158432
4.60434577, 2.80178515, 2.38222585, 4.24852916, 27.35507266, 15.02997006, 4.95479566, 9.93478737
4.43283205, 2.74772633, 2.42383993, 5.13809303, 24.56318383, 14.76990183, 6.06011551, 9.93981891
3.64005494, 2.43926218, 2.32916294, 5.47722558, 22.23454519, 16.51892854, 5.57449549, 10.53209381
3.06594194, 2.26384628, 2.02484567, 4.98497743, 27.07489612, 18.79494613, 5.54075807, 9.93478737
3.17017350, 2.44948974, 2.16794834, 5.21056619, 28.79366250, 16.32712467, 5.20816666, 12.08304597
3.62973828, 2.64575131, 2.29128785, 5.24642736, 24.57742867, 13.18047799, 4.46654229, 11.25499889
3.29393382, 3.05368630, 2.19658826, 4.75394573, 20.45788357, 14.91140503, 5.00499750, 9.33407735
3.32791226, 3.21714159, 2.38222585, 5.26545345, 25.36483787, 16.32712467, 4.73814310, 9.22090017
4.21307489, 3.04138127, 2.64102253, 6.21490145, 28.09359358, 16.33401359, 4.57711700, 10.13286731
4.06201920, 3.24037035, 2.16217483, 5.21056619, 30.34386264, 16.78019666, 4.18628714, 10.64542155
3.53553391, 3.15832234, 2.23047080, 4.83476990, 26.87145325, 16.70553800, 4.44409721, 10.23718711
3.56370594, 2.80624304, 3.05368630, 5.70526073, 21.71405075, 15.20937211, 5.00749438, 10.64894361
4.66904701, 2.61247010, 2.96226265, 5.19374624, 25.59003712, 14.57309164, 5.26307895, 11.28051417
4.56344168, 2.39269722, 2.37170825, 4.36176570, 24.37211521, 15.09221654, 5.22494019, 10.55817219
3.20156212, 2.39269722, 2.02484567, 4.63411264, 24.55096739, 13.23631369, 4.74078053, 9.64365076
3.40220517, 2.83284309, 2.10950231, 5.20816666, 24.40235644, 13.08338641, 4.47772264, 9.75576752
4.05277683, 2.58843582, 2.26384628, 5.77927331, 23.46007246, 20.51158209, 5.85875413, 10.31867240
3.82099463, 2.19089023, 2.25277607, 5.48406783, 23.99218623, 25.96776848, 6.57076860, 10.34528878
3.18590646, 2.71108834, 2.42383993, 4.86826458, 24.60538559, 21.19374908, 4.96235831, 8.98331787
3.18982758, 2.84604989, 2.23047080, 4.61519230, 20.03684107, 14.25482374, 4.15030119, 10.31746093
3.79802580, 2.63153947, 2.23047080, 4.51663592, 15.34519469, 13.93287479, 4.63411264, 10.64424727
3.82753184, 2.39791576, 2.30759615, 4.09267639, 19.12001569, 12.63229987, 3.97492138, 10.57000473
3.79143772, 2.57390754, 2.03100960, 3.49284984, 23.34684133, 12.98749398, 3.74165739, 10.00249969
3.94651745, 2.68328157, 2.33987179, 4.79583152, 21.98692793, 16.90266251, 4.26028168, 10.73778376
4.11096096, 2.48997992, 2.26936114, 5.48406783, 23.08787561, 16.73618834, 4.30406784, 12.18195387
4.23083916, 2.58360214, 1.87749834, 4.36176570, 22.16810772, 12.96823041, 3.94968353, 10.44509454
4.85283422, 3.07814879, 2.05548048, 3.99687378, 20.21323824, 11.97288603, 4.05277683, 7.70551750
4.99249437, 3.23651047, 2.00000000, 4.95731782, 23.40085469, 12.25561096, 4.80104155, 8.94147639
3.97806486, 2.91547595, 2.10950231, 5.17687164, 23.34041559, 14.73431369, 4.41021541, 8.68907360
3.52136337, 2.58843582, 2.20794022, 5.24880939, 22.71288181, 14.36053620, 3.66742416, 9.45515732
3.14245127, 2.37170825, 2.36114379, 5.83737955, 21.53253352, 12.88215820, 4.46934000, 9.19102823
4.26321475, 2.35584380, 2.47487373, 5.85875413, 27.73220150, 13.65924595, 5.23211238, 9.02911956
4.86312657, 2.79732015, 2.64575131, 5.28441104, 31.07048439, 12.62636131, 4.70637865, 9.90328228
4.06201920, 2.56417628, 2.40831892, 5.04975247, 25.77595779, 14.18802312, 3.91471583, 8.49264388
3.61593695, 3.09434969, 2.82400425, 6.39531078, 24.57742867, 15.36310515, 4.99249437, 8.96102673
3.32415403, 3.08220700, 3.07814879, 5.94558660, 26.97962194, 16.88194302, 5.49545267, 10.33561803
2.99165506, 2.21923410, 2.24722051, 4.00312378, 27.44585579, 17.00955614, 5.27967802, 12.11816818
3.34664011, 3.12249900, 2.32916294, 4.97242396, 26.45798556, 13.44154009, 5.08183038, 11.92161902
3.82426464, 3.37268439, 2.61725047, 5.30565736, 26.45562322, 11.71964163, 4.79843725, 10.86508168
3.93382765, 2.88530761, 2.44948974, 4.79843725, 25.70165364, 10.72846681, 4.30987239, 9.66307405
3.90512484, 2.99583044, 2.01246118, 4.22492603, 24.58302260, 11.60280139, 3.78483817, 8.52496334
3.54612465, 3.05368630, 2.21923410, 4.21604080, 26.52074660, 14.56622806, 3.60555128, 9.94233373
3.07408523, 3.04138127, 2.56417628, 5.68110905, 25.16545251, 16.77050983, 4.02492236, 13.56742422
4.04969135, 3.15832234, 2.77037904, 6.21087755, 23.22713930, 15.02664301, 4.49722136, 14.90805152
4.24852916, 3.17804972, 2.66458252, 5.74238626, 23.88147818, 14.23815297, 4.69574275, 13.61065759
3.05368630, 3.21325380, 2.36643191, 5.03984127, 25.14110181, 15.23728979, 5.22494019, 10.81549814
3.93064880, 2.60768096, 2.35053185, 4.84767986, 27.35598655, 14.74957627, 4.91934955, 11.01589760
4.62060602, 2.72029410, 2.07364414, 5.12103505, 25.03297825, 13.11297068, 4.22492603, 12.48999600
4.27492690, 3.12249900, 1.87082869, 4.89131884, 21.47905957, 13.11297068, 4.04351332, 9.95364255
3.86328875, 3.05368630, 1.96850197, 4.88108594, 24.19349086, 16.47498103, 5.11615090, 8.83034541
4.18927201, 3.12249900, 2.06760731, 4.70637865, 28.98490987, 19.05715089, 5.24642736, 8.77496439
4.64758002, 2.83284309, 1.91702895, 4.40454311, 27.21947832, 18.30915072, 4.65564174, 12.88312850
4.54422711, 2.86792608, 1.98746069, 4.31856458, 26.95644635, 16.55445559, 4.74341649, 12.83452375
4.06201920, 3.07814879, 2.09165007, 4.83476990, 29.60532047, 16.02732042, 4.83993802, 7.31949452
3.56721180, 3.36154726, 2.16217483, 4.25440948, 24.12674864, 13.81032223, 4.42153819, 7.61741426
3.50713558, 3.04959014, 2.20794022, 4.03732585, 17.78974424, 15.15503217, 4.85025773, 9.14330356
3.10241841, 2.38222585, 2.23606798, 4.48330235, 19.74715169, 15.46124186, 4.98497743, 9.19782583
3.46410162, 2.46475151, 2.21923410, 4.33301281, 22.66439940, 16.57181342, 4.43001129, 9.61509230
3.79802580, 2.41867732, 2.55929678, 5.50908341, 29.79848989, 20.06240265, 5.41987085, 9.08707874
3.18982758, 2.10356840, 2.67861905, 5.34322000, 28.90025951, 18.38545621, 6.10532554, 9.11180553
3.16227766, 2.36643191, 2.41867732, 4.19821391, 18.41059478, 14.82312383, 5.31272058, 9.21004886
3.20156212, 3.05368630, 2.51495527, 4.07737661, 17.97080966, 14.73940297, 4.48608961, 8.13787442
3.23651047, 2.93257566, 3.06594194, 6.11759757, 18.18309655, 13.82027496, 4.98497743, 8.35314312
3.95600809, 2.47487373, 2.95381110, 6.28291334, 19.36620768, 9.70051545, 4.73814310, 8.75499857
4.39886349, 2.66926956, 2.31840462, 4.55247186, 20.05305463, 10.57591604, 4.69840398, 8.68043778
4.35315977, 3.00832179, 2.07364414, 4.58257569, 25.97065652, 13.95976361, 5.51588615, 11.63722476
4.50000000, 3.06594194, 2.01866292, 5.22733202, 29.21215500, 15.84376849, 5.55877684, 12.72792206
4.43001129, 2.80624304, 2.01866292, 5.08428953, 25.71332339, 18.03953991, 5.49545267, 9.55248659
3.91790760, 2.42899156, 1.87749834, 4.69840398, 24.71032173, 15.33378623, 4.71168760, 8.55423872
3.71146871, 2.50998008, 1.99374020, 4.60705980, 21.27733536, 11.67582973, 4.33589668, 10.24939023
3.07814879, 2.39791576, 2.06155281, 4.57711700, 24.60335343, 15.47094050, 5.85234996, 10.28834292
3.54612465, 2.15638587, 2.17944947, 4.88620507, 25.58612905, 17.82624470, 5.92452530, 12.85398771
4.33589668, 2.40831892, 2.08566536, 4.63680925, 27.63014658, 19.00855071, 5.33853913, 13.23536928
4.44128360, 3.33541602, 2.24165118, 5.12103505, 29.17747419, 17.86476980, 5.65464411, 11.56935608
4.40454311, 3.04548847, 2.50499501, 5.56102509, 18.92617235, 17.59758506, 5.35490429, 10.54751155
3.94334883, 2.47991935, 2.21359436, 5.33853913, 19.65515200, 19.73955420, 5.57225269, 11.79406630
4.06509532, 3.02902625, 2.26384628, 4.77231600, 26.55136531, 19.42678563, 5.79439384, 13.54713992
4.01870626, 2.74317334, 2.59807621, 4.55247186, 29.26473988, 18.71630305, 5.04727649, 11.91322794
4.15632049, 2.65988722, 2.47487373, 5.20336430, 29.74516767, 23.50425493, 6.35806574, 11.21828864
4.13219070, 2.92831009, 2.30759615, 5.45664732, 33.46266576, 22.25702136, 6.77864293, 10.76800817
4.41304883, 3.29393382, 2.66458252, 6.21490145, 29.96039052, 18.19821420, 6.29682460, 13.82389236
4.79322438, 3.11046620, 2.50499501, 5.82237065, 23.64952431, 18.07138622, 6.19071886, 13.61065759
4.59619408, 2.62678511, 2.01866292, 4.84767986, 28.85134312, 16.79285562, 5.56551884, 11.69615321
4.43565102, 2.81957444, 2.44948974, 5.29858472, 28.31386586, 17.20465053, 5.83737955, 12.14392852
3.97806486, 3.08220700, 2.63628527, 4.84767986, 30.07074991, 13.51665639, 5.40138871, 11.95826074
3.51781182, 2.77938842, 2.44438131, 5.18652099, 28.20017730, 11.60280139, 4.44971909, 10.86623210
4.44409721, 2.38746728, 2.22485955, 6.17454452, 20.73463286, 14.80709289, 5.64579490, 12.24336555
4.56344168, 2.67861905, 2.26936114, 5.73367247, 22.31871412, 14.42653805, 6.62570751, 13.92928570
3.79802580, 3.29393382, 2.19658826, 4.85798312, 25.59980469, 14.49741356, 5.60133913, 10.72030783
5.19133894, 3.70809924, 2.25277607, 4.85540935, 23.87153116, 16.07171428, 4.07430976, 7.50666371
5.09656747, 3.20936131, 2.29128785, 4.56891672, 23.50691388, 16.31333810, 4.72228758, 8.49117189
3.89871774, 2.40312297, 2.27486263, 4.73286383, 29.76113237, 15.97654531, 6.15629759, 11.65868775
4.51940262, 2.65047166, 2.45458754, 5.59016994, 26.33913438, 15.24877044, 7.38410455, 15.04825571
5.00749438, 2.73861279, 2.20794022, 5.69429539, 19.72878608, 14.92648653, 6.08481717, 13.96871504
4.09572948, 2.30759615, 2.03715488, 4.72228758, 25.85440001, 20.04682020, 3.68781778, 9.37683315
3.64348734, 2.24165118, 2.10950231, 4.10487515, 29.83915213, 20.54203008, 3.92746738, 7.73627817
4.38178046, 2.21359436, 1.94293592, 4.42153819, 25.17985306, 14.75211849, 3.87943295, 13.97676644
4.39886349, 2.61247010, 2.06155281, 4.59347363, 24.00937317, 19.71991379, 4.21604080, 14.05969416
5.12835256, 3.30151480, 2.47991935, 5.56102509, 26.71610001, 25.00249988, 5.01746948, 10.10198000
4.65295605, 2.94108823, 2.35053185, 5.61248608, 25.52988445, 23.08354392, 5.27494076, 11.65654323
3.60901649, 2.42383993, 2.21359436, 5.22254727, 23.07704487, 18.72231289, 4.61519230, 15.83114020
4.33012702, 2.60288302, 2.14476106, 5.54075807, 18.95652922, 15.59406939, 5.31977443, 15.91383046
4.13521463, 2.84604989, 2.09761770, 4.93963561, 21.57429025, 16.52044188, 5.45664732, 11.83532847
3.76828874, 2.93683503, 2.15058132, 3.95916658, 23.37840884, 18.66681548, 5.32212364, 10.82704946
3.13847097, 2.76586334, 1.97484177, 3.98434436, 23.86996020, 20.03496943, 5.55652769, 9.07193474
2.97069016, 2.77037904, 2.42899156, 4.41304883, 24.22653504, 17.83395638, 4.81923230, 9.30859818
4.40738017, 3.03315018, 2.73404462, 4.26614580, 21.07249392, 14.46029045, 5.12591455, 11.00340856
4.87596144, 2.99165506, 2.62202212, 4.24558594, 23.50106381, 15.28970242, 5.22254727, 14.55506785
4.11400049, 2.70647372, 2.42899156, 4.15632049, 26.08735326, 17.98402069, 4.89897949, 14.62104647
3.87620949, 2.91976026, 2.33987179, 4.33012702, 27.35187379, 18.68354891, 6.00832755, 11.88696765
3.76828874, 2.67861905, 2.16217483, 4.67974358, 31.02579572, 14.45942599, 5.59016994, 10.00124992
3.48926926, 2.41350368, 1.87749834, 4.78539445, 29.02886495, 15.44344521, 5.00999002, 11.39407741
3.15039680, 2.53475837, 1.91702895, 4.32145809, 22.86755343, 16.87009188, 4.96990946, 10.58654807
3.84057287, 2.59807621, 1.88414437, 4.20416460, 19.21132479, 12.68167970, 3.86005181, 9.50526170
4.45813863, 2.59807621, 2.07364414, 4.39317653, 24.20278910, 11.47388339, 3.62284419, 10.41033141
3.86975451, 2.71108834, 2.42383993, 4.57438520, 24.00416631, 11.82898981, 4.69840398, 7.63380639
4.09572948, 2.76134025, 2.41867732, 4.88108594, 23.53561132, 13.18711492, 4.85540935, 9.07193474
4.11400049, 2.89827535, 2.29673682, 4.95731782, 25.44945972, 14.74194695, 3.36897611, 9.84758854
3.11849323, 2.91547595, 2.30217289, 4.35315977, 22.77553512, 13.35009363, 3.58120092, 8.90786170
3.44963766, 2.60768096, 2.04939015, 4.30697109, 21.71692888, 11.13889582, 4.41304883, 9.04709898
4.57438520, 2.58360214, 2.04939015, 5.29386437, 22.47776679, 12.80820050, 4.79061583, 9.40611503
4.56618002, 3.06594194, 2.28035085, 5.55202666, 30.65901173, 16.00859144, 5.08920426, 9.12277370
4.18927201, 3.24807635, 2.15058132, 5.63471383, 30.69405480, 15.58845727, 5.12835256, 9.01803748
4.23674403, 2.94957624, 2.50499501, 6.49807664, 22.54218268, 14.29685280, 4.61248306, 10.14519591
4.99249437, 2.65518361, 2.55929678, 5.96657356, 18.08314132, 14.72667648, 4.88876262, 11.35671607
5.40832691, 2.35584380, 2.03100960, 4.56618002, 20.52437575, 12.84328618, 5.44977064, 10.10074255
4.47772264, 2.26936114, 2.07364414, 4.66636904, 24.29609022, 13.22497637, 5.15509457, 8.92608537
4.11703777, 2.24722051, 2.12720474, 4.82441706, 26.51131834, 14.72752525, 4.57711700, 8.50294067
4.13823634, 2.45458754, 2.08566536, 4.32145809, 26.29543687, 15.18057970, 5.17204022, 9.91337480
4.46094160, 3.39116499, 2.60768096, 5.18169856, 22.26937359, 15.09966887, 5.63249501, 12.34706443
4.71433983, 3.58817502, 2.47991935, 5.20336430, 18.78895952, 14.67140075, 5.45664732, 13.88794441
4.56891672, 3.11448230, 1.91702895, 4.15331193, 21.63908501, 17.27281100, 5.51135192, 14.81890684
4.00936404, 3.03315018, 2.19658826, 4.78800585, 27.52362621, 16.88860563, 4.99499750, 12.45491871
3.42417873, 2.55440795, 2.26384628, 4.61519230, 25.82005035, 13.65466953, 4.51386752, 12.34200146
3.96232255, 3.28252951, 2.65047166, 5.24166004, 23.69177072, 14.70034013, 4.25147033, 12.71318214
3.68781778, 3.48568501, 2.70185122, 5.83309523, 28.50263146, 16.33783951, 5.65022123, 10.27740240
3.78813938, 2.63153947, 2.22485955, 5.46122697, 28.27852542, 14.34660239, 6.85747767, 9.76985159
3.85681216, 2.47991935, 2.16794834, 5.04727649, 23.87257841, 12.60753743, 5.75760367, 10.00874618
3.22877686, 2.53475837, 2.33987179, 5.04727649, 19.54865724, 13.11487705, 4.62331050, 9.43663075
3.50356961, 2.68793601, 2.23606798, 4.86569625, 19.48011807, 14.75720163, 4.63141447, 10.20294075
3.90832445, 2.92831009, 2.20794022, 5.03239506, 19.24772714, 14.70629117, 4.12007281, 10.56527330
4.12613621, 2.96647939, 2.43926218, 5.28677596, 17.44921202, 12.42678559, 4.62601340, 9.55510335
4.69041576, 3.22877686, 2.45967478, 5.11126208, 21.97384809, 14.07124728, 5.57897840, 10.74709263
4.63680925, 3.58817502, 2.38222585, 5.10636857, 19.93489403, 14.61249465, 5.25357021, 11.33026919
3.98748041, 3.53199660, 2.23606798, 5.23688839, 19.35910638, 16.01093376, 4.63141447, 12.43080850
3.65718471, 3.62629287, 2.59807621, 5.72057689, 23.99739569, 15.55554563, 4.67707173, 11.58878768
3.53199660, 3.19374388, 2.88097206, 5.98539890, 23.64318084, 15.47417203, 5.29150262, 9.64494686
3.94968353, 2.92831009, 2.39269722, 4.82182538, 23.15869167, 16.22498074, 5.07444578, 9.37283308
4.91426495, 3.19374388, 2.17370651, 3.18198052, 24.37006360, 16.63505335, 4.61789996, 8.82326470
4.61789996, 2.87662997, 2.42383993, 4.42153819, 23.20237057, 18.83281710, 5.57897840, 9.95991968
3.97177542, 2.43413229, 2.16794834, 4.68774999, 23.04289478, 16.68007794, 5.34555890, 8.93168517
3.74833296, 2.35584380, 1.83030052, 3.66060104, 22.41316577, 19.58826179, 5.44977064, 7.91359590
3.36154726, 2.78836870, 1.91702895, 4.37607130, 22.04087113, 21.01071155, 6.19071886, 9.21276289
3.40220517, 2.88963666, 2.00000000, 4.64488966, 22.55382451, 17.75246462, 5.55202666, 8.92328415
3.61593695, 2.84604989, 2.17944947, 4.43846820, 22.09581408, 15.87135785, 4.23969339, 9.12688337
4.07430976, 2.83725219, 2.69258240, 4.98748434, 25.34659740, 16.57860066, 4.69041576, 11.35781669
4.42718872, 2.90688837, 2.73861279, 5.13565965, 24.48877294, 18.62055316, 4.80104155, 12.11713663
3.88587185, 2.95803989, 2.57390754, 5.39675829, 25.06142454, 19.30867681, 4.39033028, 11.75584961
3.10241841, 2.85043856, 3.46770818, 5.28204506, 25.87759649, 17.79957865, 4.96487663, 9.93227064
3.78813938, 3.31285375, 5.40832691, 4.47213595, 23.65428080, 15.16575089, 5.98331012, 9.62938212
4.15632049, 3.44963766, 5.24404424, 4.15932687, 22.93087438, 16.01873903, 5.81807528, 11.24499889
4.57984716, 3.12249900, 3.04959014, 4.53872229, 22.21936093, 16.58915308, 5.27494076, 12.90736224
4.38748219, 2.88530761, 2.84165445, 5.48178803, 21.69850225, 16.52271164, 6.38161422, 14.22673540
4.00624512, 2.79284801, 2.91118533, 5.03487835, 20.62886327, 14.74872876, 5.63914887, 12.79941405
3.55668385, 2.31300670, 2.51495527, 4.24558594, 20.92904680, 12.87245120, 4.57984716, 10.19313494
3.37268439, 1.86413519, 2.91976026, 4.77755167, 22.45662486, 15.64528683, 4.48608961, 7.76208735
4.11703777, 2.32379001, 2.73861279, 4.16533312, 22.58982072, 17.86966704, 5.58121850, 8.92748565
3.75499667, 2.93683503, 2.45967478, 5.18169856, 19.89723599, 17.68968626, 6.87022561, 11.61787416
3.83405790, 4.07737661, 3.17411405, 6.78785680, 19.84502457, 18.06723554, 7.01248886, 12.39758041
4.32434966, 4.00624512, 3.07408523, 6.08070720, 20.43465194, 18.78430196, 5.98748695, 13.13868334
4.06509532, 2.78388218, 2.21359436, 4.21010689, 22.16303228, 16.86786886, 7.79262472, 15.39236824
4.23083916, 3.43147199, 2.37170825, 3.65034245, 26.89098362, 26.30921892, 18.04092570, 16.38596961
4.21010689, 3.64691651, 2.65518361, 4.62871472, 27.45086520, 27.44130099, 18.63397435, 12.44286944
3.57071421, 2.72946881, 2.30217289, 4.84767986, 23.73604853, 17.15954545, 11.14113998, 8.48822714
3.60901649, 2.69258240, 2.20794022, 4.78016736, 21.51859661, 20.96127382, 8.39493895, 11.63829884
3.58468967, 2.79284801, 2.26936114, 4.30697109, 22.70132155, 21.10568644, 6.08687112, 10.99772704
2.84165445, 3.10241841, 2.01866292, 3.79473319, 21.99147562, 18.20714146, 5.63693179, 9.10768906
3.35037311, 3.30151480, 1.74642492, 4.07737661, 22.70572615, 19.49743573, 5.99166087, 12.62834114
3.86328875, 3.11448230, 2.12720474, 4.35889894, 21.93912031, 17.93878480, 5.81807528, 12.58868540
3.79473319, 2.63628527, 2.25277607, 4.47493017, 22.86755343, 15.81850183, 5.69209979, 9.71982510
3.44238290, 2.23606798, 2.04939015, 4.51386752, 25.74975728, 12.21372179, 6.37573525, 11.78452375
2.75680975, 2.79732015, 2.04328167, 4.89642727, 21.44236461, 13.04032208, 6.03531275, 12.19323583
3.13049517, 3.06594194, 2.16217483, 4.75657440, 22.55992021, 14.38314986, 6.16441400, 9.56033472
3.77160443, 3.04548847, 2.23606798, 4.57984716, 27.67896313, 13.28062499, 6.07659444, 9.59166305
4.07124060, 2.87228132, 2.07364414, 4.71699057, 26.24928570, 13.59503586, 5.03736042, 10.53328059
4.14728827, 2.48495473, 2.24722051, 4.52769257, 23.06295731, 15.15750639, 4.47493017, 11.12879149
4.26321475, 2.43413229, 2.37170825, 5.13078941, 19.77814450, 15.80031645, 3.86005181, 10.66419242
4.37607130, 2.83725219, 2.35584380, 5.06951674, 23.83222608, 16.32865579, 4.57984716, 8.82751381
4.30406784, 3.57071421, 2.82400425, 3.74833296, 27.00833205, 15.72418519, 6.36396103, 9.48946785
4.27492690, 3.25576412, 2.62678511, 3.30151480, 23.45687532, 14.91559586, 6.40312424, 10.23840808
4.38178046, 2.81069386, 1.87749834, 3.36897611, 24.84552274, 16.50303002, 6.12372436, 10.48570455
4.13823634, 2.80178515, 2.14476106, 4.23674403, 25.02149076, 19.35716921, 6.58217289, 10.82127534
3.41320963, 2.02484567, 2.06155281, 4.59347363, 24.41311123, 17.13038237, 5.26782688, 10.25914226
3.77491722, 2.57875939, 2.09165007, 4.48608961, 25.83069879, 16.15317306, 4.05585996, 9.52234215
4.01248053, 2.76134025, 2.24165118, 4.31277173, 23.07596152, 16.89008585, 4.04042077, 9.93227064
4.48051336, 2.57390754, 2.20794022, 4.53045252, 20.35374658, 14.83239697, 4.12007281, 12.07890724
4.63950428, 3.10241841, 2.33452351, 5.56327242, 24.55911236, 15.06485977, 4.37607130, 11.35671607
4.19821391, 3.09434969, 2.35584380, 4.83735465, 24.97698941, 15.79556900, 4.50277692, 12.08304597
3.83079626, 2.83284309, 2.62202212, 3.73496988, 21.13527856, 22.17825512, 6.23297682, 13.11297068
4.33877863, 2.69258240, 2.65518361, 4.29243521, 20.91291467, 20.19962871, 5.91185250, 13.27780102
4.65026881, 2.79284801, 2.43926218, 4.50000000, 21.37989710, 12.65108691, 4.68241391, 12.87730562
4.03732585, 3.17017350, 2.65988722, 5.23450093, 21.34771651, 15.09304476, 4.23379263, 9.61249187
4.79061583, 3.23651047, 2.50998008, 4.98748434, 20.64461189, 15.34356543, 4.15331193, 6.89202438
4.33589668, 3.19374388, 2.37697286, 5.52268051, 23.60137708, 15.81455026, 5.20816666, 8.41278789
3.34664011, 3.00416378, 2.72488532, 6.17454452, 22.21767315, 21.13409567, 6.19273768, 12.11610498
3.56019662, 2.76134025, 2.52487623, 5.44288526, 18.20920097, 19.72054766, 5.80732296, 10.99090533
3.14245127, 2.90258505, 2.60288302, 5.73149195, 18.39972826, 11.90903019, 5.04975247, 8.31715095
3.06186218, 3.03726851, 2.65988722, 5.20096145, 22.04030399, 14.10053190, 4.76445170, 10.09826718
3.11849323, 2.70185122, 2.12720474, 4.16233108, 24.30740628, 14.90553588, 4.09878031, 9.73396117
3.73831513, 2.75680975, 2.09165007, 4.28660705, 20.06738648, 14.62532051, 4.67707173, 8.86284379
4.73550420, 2.81957444, 2.31840462, 4.80624594, 25.51078203, 17.40689519, 5.01996016, 11.24055159
4.64219776, 2.42899156, 2.29673682, 4.92188988, 28.65484252, 15.49516053, 4.78278162, 10.70630655
4.07124060, 2.69258240, 2.26936114, 4.73814310, 22.71838463, 13.21457529, 4.81923230, 8.60668345
4.47493017, 2.80178515, 2.28035085, 4.39886349, 24.74166526, 12.82088140, 4.27492690, 7.90885580
4.13521463, 2.80624304, 2.28582589, 4.55796007, 26.28925636, 17.45350968, 3.89551024, 8.22040145
3.41320963, 2.82400425, 2.24165118, 4.92696661, 22.91287847, 18.77564912, 4.26028168, 10.54039847
4.17731971, 2.84604989, 2.27486263, 4.66904701, 19.21717981, 15.71543827, 4.98998998, 11.62110150
4.46374282, 2.83284309, 2.16217483, 4.38748219, 20.61067684, 13.71222083, 5.01248441, 10.66184787
4.40454311, 2.75227179, 1.97484177, 4.32723930, 23.83747050, 13.07478489, 5.05470078, 10.09702927
4.19523539, 2.83725219, 2.06760731, 4.54697702, 25.50196071, 13.54990775, 4.99749937, 9.35414347
3.58817502, 2.91976026, 2.42383993, 4.34453680, 25.18680210, 12.72006289, 3.77822710, 8.97914250
4.21900462, 2.69258240, 2.39269722, 4.17133072, 24.28116554, 16.89304591, 3.89551024, 9.79795897
4.39886349, 2.40312297, 2.05548048, 4.07124060, 26.45987528, 16.37452289, 3.89230009, 8.69913789
4.31277173, 2.44438131, 2.26384628, 4.75920161, 26.65520587, 11.53798076, 4.14427316, 10.06230590
4.48330235, 2.85043856, 2.38746728, 5.15266921, 24.89829311, 12.75931033, 4.96235831, 10.43671404
3.99061399, 2.82400425, 2.09165007, 4.09267639, 24.95045090, 14.72073368, 4.79061583, 9.35681570
3.94017766, 2.76134025, 1.92353841, 3.31285375, 25.53037407, 14.62019152, 4.82700735, 10.01998004
3.45325933, 2.77488739, 2.22485955, 4.11096096, 23.28250416, 15.25368808, 5.20816666, 9.91211380
3.43511281, 2.54950976, 2.41350368, 4.74341649, 29.33342803, 15.69713350, 5.09411425, 9.29919351
3.42417873, 2.85482048, 2.45458754, 5.47494292, 29.36622209, 13.36787193, 4.76969601, 7.66648551
3.52491135, 2.66926956, 2.29673682, 5.56327242, 22.60641502, 12.94314490, 4.44128360, 9.11866218
4.44128360, 2.67394839, 2.68328157, 5.50227226, 20.38197733, 16.64181480, 4.47213595, 10.38628904
4.14728827, 3.09434969, 2.96226265, 5.56102509, 18.48445293, 16.01327574, 4.66636904, 12.13260071
3.84057287, 2.60288302, 2.46981781, 5.29150262, 23.78444870, 12.06544653, 5.41063767, 13.27309308
4.12310563, 2.13892496, 2.04939015, 4.71963982, 25.59980469, 15.64049232, 5.58569602, 11.78028013
3.69120577, 2.77488739, 2.07966343, 3.98748041, 22.39419568, 15.85007886, 4.81923230, 11.13328343
3.65034245, 2.60768096, 2.10356840, 3.96547601, 21.80710893, 11.22608569, 3.99687378, 9.18830779
5.27494076, 2.23047080, 2.15058132, 4.25147033, 21.49244053, 14.96996994, 5.22733202, 10.86623210
5.17928567, 2.23606798, 2.39269722, 5.34322000, 22.94449825, 16.36383207, 5.08183038, 10.87083253
4.56344168, 2.33987179, 2.61725047, 5.90550591, 26.91653767, 14.60393783, 3.15039680, 6.76387463
4.19225476, 2.51495527, 2.51992063, 6.04979338, 23.57753168, 15.00583220, 3.67763511, 7.65343060
4.14427316, 2.39791576, 2.29673682, 5.04727649, 23.43501654, 14.54819576, 4.65026881, 9.59687449
4.94722144, 2.55440795, 2.55929678, 4.29243521, 24.44330174, 15.94051442, 5.05470078, 9.37149935
4.69041576, 3.42052628, 2.98328678, 5.40832691, 19.81098180, 16.59743956, 4.90407993, 10.23474475
4.79843725, 3.48568501, 2.74772633, 5.27019924, 18.52363355, 15.42886904, 4.88364618, 10.94646062
4.56344168, 2.52487623, 2.21923410, 4.82182538, 23.38856558, 13.22686660, 4.93710441, 10.76104084
4.40738017, 2.70647372, 2.36114379, 4.94722144, 24.28682771, 14.24517462, 5.35723809, 9.28843367
3.97492138, 3.31285375, 2.32916294, 4.61519230, 20.15812491, 17.05359200, 4.42153819, 6.44980620
3.62973828, 3.22102468, 2.52982213, 4.43001129, 19.90916874, 16.54992447, 3.73162163, 8.02651855
4.48330235, 2.75680975, 2.61247010, 4.41304883, 26.21926772, 16.03589723, 4.62331050, 10.79467461
4.03422855, 2.71569512, 2.46475151, 4.68241391, 25.91042261, 14.74872876, 4.31277173, 10.98635517
3.59165700, 2.57875939, 2.37697286, 4.55796007, 24.74772717, 17.78482499, 4.43565102, 8.52789540
4.25147033, 2.50499501, 2.42899156, 4.48608961, 27.00138885, 17.16318735, 4.51940262, 6.84287951
4.67172345, 2.72488532, 2.43413229, 4.72228758, 24.40850262, 10.47854952, 4.53872229, 8.99027252
4.13521463, 2.87662997, 2.10950231, 5.16720427, 23.29645896, 11.52171862, 4.57711700, 9.43927963
4.11096096, 2.78836870, 1.73925271, 4.64219776, 21.09680071, 12.77301844, 4.66636904, 10.72963187
5.57673740, 2.99165506, 2.23606798, 4.13823634, 20.79663434, 15.13687550, 4.78539445, 10.99886358
5.07937004, 3.19765539, 2.56417628, 4.29243521, 30.00999833, 18.99539418, 4.75131561, 10.57946123
3.79143772, 2.55440795, 2.35584380, 4.29825546, 32.20403701, 18.62927803, 4.99249437, 10.99886358
4.07430976, 2.42899156, 2.35584380, 4.85540935, 23.82907887, 15.65646831, 4.47772264, 9.99499875
4.83993802, 3.17411405, 2.40831892, 5.00000000, 23.32916629, 13.31728200, 4.25734659, 11.19486489
4.57165178, 3.05368630, 2.43413229, 4.50832563, 25.53380113, 10.71330948, 4.39317653, 10.81087416
3.52845575, 2.83725219, 2.45967478, 4.82700735, 23.63419133, 12.37133784, 4.22492603, 8.18382551
3.61247837, 3.18198052, 2.55440795, 5.55877684, 23.26746656, 13.46848173, 4.83218377, 6.49230314
3.37638860, 2.82400425, 2.30217289, 4.75394573, 24.56521932, 15.28561415, 4.78539445, 8.06535802
3.86975451, 2.39791576, 1.93649167, 3.98434436, 22.79747793, 15.37123938, 4.25734659, 9.33541643
4.50555213, 2.44948974, 1.87749834, 4.45252737, 20.52985631, 11.82793304, 4.51940262, 12.24132346
4.64488966, 2.75680975, 2.19089023, 5.14781507, 21.25617557, 13.42106553, 4.81144469, 11.95826074
4.62601340, 3.00416378, 2.26384628, 4.62871472, 23.23144421, 15.24959016, 4.90662817, 9.35815153
4.68241391, 2.70185122, 2.14476106, 3.60555128, 22.87629778, 14.49913791, 4.82959626, 11.69080836
4.62601340, 2.35053185, 2.07966343, 3.90512484, 22.34222460, 13.57663434, 4.59891292, 11.07587468
4.08656335, 2.87228132, 2.16217483, 5.05964426, 23.09274778, 12.25357091, 4.17133072, 8.90645833
3.66401419, 3.47131099, 2.36643191, 4.75657440, 24.11482946, 11.67904106, 3.68781778, 8.36660027
3.58120092, 3.35410197, 2.57390754, 4.69840398, 22.97389823, 13.35851788, 4.15632049, 7.40776620
3.59165700, 2.88530761, 2.56904652, 5.23688839, 21.85978042, 13.77951378, 4.40738017, 8.53961357
3.33166625, 3.07814879, 2.60288302, 5.07937004, 24.39364671, 14.32043994, 4.42718872, 10.51665346
3.95600809, 3.48209707, 2.72488532, 4.92696661, 28.04817285, 16.09736003, 4.96990946, 9.84377976
4.44128360, 3.18590646, 2.52982213, 5.07690851, 25.02848377, 16.50303002, 4.90407993, 10.66184787
3.98748041, 2.56904652, 2.31300670, 5.42678542, 20.45727255, 14.13859965, 4.69574275, 11.95198728
4.28952212, 2.42899156, 2.21359436, 4.35028735, 22.98749660, 13.44897766, 4.43283205, 10.42952540