2.81513765, 3.76828874, 5.12591455, 14.39791652, 32.39290046, 16.76901905, 6.73795221, 4.04660351
9.59035974, 6.76202632, 9.28439551, 21.43770044, 41.08892795, 26.52263185, 14.94238937, 11.33137238
32.54304841, 10.64072366, 10.30412539, 22.60420315, 39.44141225, 28.49034924, 37.94897891, 40.78786584
37.88766290, 12.94507628, 10.14396372, 17.59048038, 28.72063718, 25.79050213, 36.44104828, 49.81340181
32.75782349, 12.17066144, 8.57612966, 11.67154660, 31.35881056, 20.76354979, 11.94884932, 42.98226378
28.60725432, 9.24932430, 4.75657440, 10.07472084, 35.97151651, 26.47829300, 10.36098451, 39.29980916
24.05670385, 8.49705831, 8.60958768, 14.85176757, 29.27797807, 36.63945960, 11.46952484, 33.28513182
48.45049019, 21.31666015, 29.71447459, 19.29766825, 29.56560502, 55.31500701, 18.16590212, 52.83701354
55.14820940, 36.66196940, 61.61006411, 36.96687707, 37.79252572, 62.96308442, 20.82306414, 59.45229180
42.46675170, 34.44016550, 66.07968674, 37.08402621, 36.01284493, 55.20597794, 19.89723599, 42.90075757
36.99729720, 22.61857644, 43.51436544, 17.79466212, 31.05197256, 48.63229380, 16.57105911, 39.85912693
38.27727786, 18.60577867, 32.49307619, 17.23586377, 27.24426545, 47.25674555, 14.61335006, 44.53060745
37.74089294, 14.57137605, 34.07381693, 19.10628169, 26.10890653, 46.15733961, 13.82660479, 37.79781740
32.31060198, 18.70962319, 39.56987491, 22.57542912, 32.26569386, 46.48951495, 12.74852933, 24.30277762
33.01060436, 19.20676964, 38.07361291, 21.70656583, 29.31296641, 46.19361428, 13.79130161, 20.54385553
43.35089388, 17.32916617, 35.74597879, 16.90488095, 33.56523499, 45.90724344, 12.07683733, 27.22315191
41.24257509, 17.17920254, 39.31443755, 18.28318900, 38.11430178, 51.11237619, 11.63829884, 27.15557033
27.32672684, 15.84692399, 30.70097718, 16.62828915, 33.50559655, 52.52356614, 13.04319746, 23.01901388
24.03591063, 12.72693993, 18.02220852, 13.97944920, 38.92749671, 51.96344869, 13.83022053, 27.66857423
24.71841419, 8.02963262, 14.07035892, 12.79453008, 38.98557426, 48.00442688, 14.13683133, 26.83840532
25.54995108, 6.94262198, 9.49605181, 12.57676429, 31.51983502, 41.81028582, 15.61889881, 22.36515146
25.16942590, 6.80441033, 7.42125326, 12.86565195, 27.06011826, 38.37023586, 16.84116979, 21.33248696
23.87048387, 4.58530261, 6.21087755, 9.54070228, 24.48571012, 36.83306938, 16.73170643, 22.65778012
21.72038213, 6.88113363, 7.38071812, 9.91589633, 28.70496473, 35.85247551, 17.98749566, 20.03309761
20.15440399, 7.19722169, 7.35696948, 9.91211380, 27.45268657, 33.45780925, 21.44994172, 13.03456942
20.39546518, 4.31856458, 5.38980519, 7.06399320, 23.84795589, 30.49754088, 24.47703005, 14.17744688
24.35928981, 4.13823634, 5.22494019, 7.39594483, 25.24133515, 34.04665916, 29.38409434, 15.35659467
25.40029527, 5.10147038, 6.60113627, 7.05691151, 22.15062076, 35.17634148, 34.68212796, 14.19683063
24.41515923, 8.01560977, 17.72004515, 8.50000000, 18.73299229, 33.40359262, 34.65725032, 11.95303309
27.34821749, 13.39869397, 30.75020325, 14.27322668, 20.16370502, 34.10498497, 25.52939482, 13.28250729
31.50396800, 15.21594558, 30.49508157, 15.64848235, 20.48658097, 29.30230366, 19.39974227, 18.70628237
31.75885703, 12.13775103, 23.16732613, 11.57151675, 19.86328271, 28.71628458, 25.32439535, 18.67953426
29.55461047, 9.94610477, 22.02839077, 9.36749700, 18.09488878, 30.98588388, 23.88618848, 14.78681845
33.15230007, 12.19528597, 18.82551460, 11.10630452, 16.51514456, 27.78443809, 19.53202498, 18.57215658
34.31836243, 12.57676429, 15.84219051, 11.85010548, 18.77764628, 29.03058732, 22.96627963, 20.91769586
27.93206043, 9.54070228, 13.95080643, 10.72963187, 20.27498459, 27.35415873, 24.35467101, 20.84166500
19.44029321, 9.61769203, 13.67936402, 9.57731695, 17.40904937, 27.73806049, 20.51584753, 19.16507240
16.70478973, 11.81207010, 19.89158113, 9.28843367, 16.96614276, 27.44357848, 18.51350858, 18.97959431
20.00249984, 11.48368408, 22.50944246, 10.17595204, 20.36970790, 33.23853186, 19.94617758, 18.33848412
16.84710658, 8.39940474, 17.08434956, 9.20733403, 20.30332485, 35.19339427, 22.58373308, 14.44991349
10.43431838, 5.70306935, 10.62308806, 6.41872261, 17.07849525, 33.96947159, 23.63736449, 12.78768939
10.01124368, 4.96487663, 7.31266025, 5.37354632, 15.09552914, 38.20765630, 25.25915676, 12.60852886
10.33924562, 3.43511281, 4.73814310, 6.20685105, 22.43044806, 34.75773295, 29.60194250, 15.19868415
10.61013666, 4.98998998, 10.96699594, 9.92597602, 23.85948449, 35.36382332, 26.73714644, 16.56426877
10.57709790, 5.23688839, 12.13569116, 10.89151046, 17.42699056, 33.86295911, 25.11324352, 16.06315660
12.78475655, 4.25147033, 6.76756973, 9.03050386, 14.56107826, 33.61510077, 27.01990007, 14.32742126
12.80722452, 6.54790043, 15.00916387, 11.76966440, 13.21457529, 31.02821297, 23.19482701, 16.16941557
11.05214911, 7.81024968, 18.03122292, 12.24030228, 16.08803904, 27.84376052, 21.49476680, 17.63306553
10.18700152, 6.28689112, 12.43382483, 9.10906142, 15.13439791, 31.09019138, 20.74066055, 13.68119147
10.18945533, 4.32145809, 8.71923162, 9.93981891, 13.02113666, 31.43087654, 18.36913172, 11.99895829
8.82751381, 3.41320963, 6.60113627, 9.38083152, 16.54841382, 32.06009981, 15.57642449, 11.78664498
6.85565460, 2.64102253, 5.00749438, 6.59545298, 18.02290210, 29.14017845, 15.86111598, 14.06947049
9.91337480, 9.19238816, 16.12916613, 9.97747463, 16.79359997, 25.60078124, 19.22043184, 16.44916411
20.18043607, 17.85847138, 34.92420364, 17.83816134, 17.65644358, 26.22546472, 17.89972067, 16.49469612
28.98145959, 19.34295737, 47.10493605, 21.43595111, 21.80137610, 29.76449227, 18.64604516, 21.16069470
27.29102417, 20.81345719, 54.38405097, 27.36283976, 31.06002254, 33.75018518, 19.03877622, 21.37989710
19.92674083, 19.26460485, 50.32693116, 28.13760828, 31.16608734, 31.41735189, 20.89377898, 18.08797943
14.89379065, 13.11297068, 35.85108088, 18.55397532, 18.76566013, 25.78517016, 21.37638884, 15.58524944
13.52959719, 13.37721944, 29.54953468, 13.17858111, 11.32475165, 23.46113808, 17.27498191, 12.59265659
13.55912977, 10.33924562, 23.12304046, 13.75772510, 14.19859148, 28.65658738, 16.00937226, 12.77203977
11.16915395, 6.71565336, 13.59595528, 12.56184700, 21.69965438, 30.99838705, 16.78317610, 18.78430196
12.53395389, 6.63136487, 9.90202000, 10.16980826, 24.15936671, 27.26719641, 17.95062673, 19.32291386
11.74095396, 6.09713047, 9.69149111, 9.32201695, 17.89972067, 31.38869223, 19.97248107, 13.83744919
10.41633333, 4.63411264, 8.14861951, 8.60523097, 13.69397678, 30.34551038, 21.59224398, 13.89154419
10.52259474, 3.88265373, 5.40601517, 7.86288751, 17.68756625, 22.93414485, 15.91618673, 16.50833123
10.68527024, 3.52491135, 5.06211418, 9.53808157, 21.70426225, 20.54689758, 10.46541925, 15.89103521
14.88959368, 4.38463225, 3.80460248, 9.19646671, 19.82548864, 20.98570942, 10.59245014, 14.77244056
14.32829369, 4.87596144, 3.77160443, 9.65530942, 19.87083290, 24.20330556, 12.73577638, 14.38141161
11.03970108, 4.78800585, 3.82099463, 10.16857906, 18.91560203, 29.17104729, 20.17609972, 14.13064047
16.06393476, 7.33825592, 4.22788363, 8.92608537, 14.59965753, 28.45918130, 24.39723345, 15.22087383
26.93603534, 18.28865769, 8.28100235, 8.78635305, 16.53707955, 28.77976720, 21.33365885, 17.79747173
27.93161291, 18.25308193, 8.25530133, 9.42602780, 15.03828448, 30.07324392, 20.22003956, 20.42118998
24.95445852, 8.73498712, 4.23969339, 10.23108010, 14.95158854, 31.23579677, 19.37588708, 17.33349359
24.81028013, 9.49605181, 9.28574176, 10.55343546, 16.32253044, 29.92866519, 20.98809186, 19.38814071
23.63947969, 9.22225569, 14.76905549, 14.69778895, 16.38749523, 24.94493937, 24.73459116, 20.13640981
26.39554887, 8.58341424, 13.63359820, 15.18634255, 16.82928994, 26.01730194, 22.35229295, 18.79694124
20.63007513, 7.72172261, 12.53295655, 14.42307179, 14.91894768, 25.59589811, 18.26608880, 17.35799528
12.28718845, 5.86728216, 12.66392514, 13.79764473, 14.43606595, 30.48565236, 16.95140112, 14.89211201
11.92476415, 5.15266921, 8.81050509, 10.52259474, 20.49634114, 28.94477500, 16.87231460, 15.74007624
10.88347371, 3.81444622, 6.49807664, 9.28304907, 20.94636007, 23.33130944, 17.16027389, 18.95191283
15.41265714, 4.78016736, 8.01093003, 11.45862121, 17.98541075, 20.29963054, 15.69554077, 19.55696807
19.43900718, 5.72276157, 7.60756203, 10.84896308, 18.37661558, 12.14598699, 11.80042372, 15.00499917
15.88788847, 4.83218377, 4.94974747, 6.77310859, 15.49112649, 11.78134118, 9.86154146, 12.49399856
9.81707696, 4.09878031, 6.26099034, 7.74596669, 15.63249820, 11.58878768, 10.14765983, 13.70036496
11.90693075, 3.58468967, 5.46122697, 8.06380803, 17.04699387, 16.87527778, 11.43787568, 15.15255754
10.49642796, 2.67861905, 3.83731677, 8.33516647, 14.88371593, 16.88342382, 9.84631911, 11.58770901
8.96660471, 2.88963666, 4.30987239, 8.44245225, 13.86271979, 11.07700320, 9.86914383, 10.15874008
12.01769529, 3.54259792, 4.34453680, 7.99061950, 13.90683285, 9.73267692, 9.82344135, 10.97269338
11.89012195, 3.54259792, 4.42718872, 7.29211903, 13.16529529, 12.08718329, 8.92748565, 12.38042810
9.43795529, 5.58569602, 9.91463565, 11.05214911, 13.05373510, 11.59525765, 8.20822758, 11.31260359
9.41806774, 5.72276157, 10.66419242, 11.87328935, 14.88455575, 10.48928024, 10.03369324, 9.79795897
12.93251716, 3.89871774, 7.79903840, 7.55479980, 17.17410842, 11.50977845, 12.67379186, 14.99416553
15.03828448, 4.16533312, 7.05159556, 7.24913788, 16.42711174, 10.37906547, 10.93846424, 16.13304063
16.26883524, 4.91680791, 8.44837262, 7.50666371, 11.36661779, 7.19027120, 7.61905506, 12.39959677
16.23422311, 5.63027530, 11.66404733, 7.69902591, 15.51289786, 6.98391008, 7.62725377, 11.10855526
15.00499917, 4.78016736, 9.89570614, 9.09807672, 21.11930397, 10.02746229, 7.55479980, 11.04536102
13.32385079, 4.26907484, 8.27496224, 8.52642950, 18.54925875, 10.01623682, 6.64266513, 12.28922292
13.39309524, 5.08920426, 9.15696456, 7.36376263, 15.47013251, 10.45585960, 7.79262472, 14.49655131
12.60059522, 4.57165178, 6.89746330, 7.02139587, 16.75634208, 10.66184787, 8.29909634, 13.36974196
12.03120942, 3.58120092, 6.08687112, 8.47643793, 17.39324582, 9.64494686, 7.32973397, 13.78223494
12.83744523, 3.94968353, 7.01961537, 8.79772698, 16.95435047, 11.09391725, 6.43234017, 12.54392283
13.83383533, 4.13219070, 7.05513997, 8.86143329, 17.53852901, 11.25833025, 5.47722558, 12.10165278
16.53405576, 3.79802580, 7.03740009, 8.75499857, 18.11905075, 10.12793167, 6.22896460, 19.16050626
13.38002242, 3.59861084, 6.29880941, 6.71006706, 20.71412562, 10.52497031, 8.06690771, 18.01735275
9.83615779, 3.87620949, 5.94768863, 6.39531078, 19.10104709, 10.27253620, 7.70064932, 13.92120684
14.73176839, 3.69797242, 6.37965516, 6.94982014, 13.27120944, 8.65303415, 6.07453702, 19.51986168
14.51981405, 3.19765539, 5.53850160, 8.24469526, 12.98075499, 7.74435278, 5.85875413, 18.88782677
13.99553500, 3.28633535, 5.14781507, 8.85578907, 12.31361036, 7.64362479, 7.14842640, 14.52411787
20.64642826, 3.30907842, 4.70372193, 7.17635005, 13.01345458, 7.77978149, 6.80257304, 15.00000000
22.66053839, 3.55668385, 5.38980519, 7.14317856, 18.42688254, 10.00999500, 6.45368112, 15.11208126
17.50428519, 4.59075157, 6.86658576, 7.87876894, 19.70723218, 10.74941859, 7.25430906, 15.09387293
22.68259244, 4.42153819, 6.20685105, 6.30079360, 15.42076522, 10.73894781, 5.57449549, 13.81122732
23.01358295, 3.18982758, 5.49317759, 5.98122061, 15.39155613, 11.88065655, 5.47950728, 12.77106104
16.71077497, 3.35410197, 6.46529195, 9.16242326, 17.44992837, 11.61787416, 6.63136487, 12.18605761
23.56002971, 4.18628714, 6.81909085, 8.88538125, 16.90044378, 10.42113238, 6.56505902, 13.56465997
21.39918223, 4.35028735, 6.55171733, 6.94982014, 18.41398925, 11.52388823, 5.56776436, 12.34706443
17.73626229, 3.74499666, 6.29682460, 7.92148976, 21.32369574, 12.32172877, 5.65685425, 13.63268132
26.27689099, 3.14245127, 5.87579782, 8.43059903, 20.94397288, 10.26279689, 6.72681202, 17.08727597
26.68098574, 3.03726851, 5.53850160, 7.89145107, 16.05459436, 8.78635305, 6.60492241, 16.51892854
17.67201177, 3.38378486, 7.00000000, 7.35017007, 17.20900927, 10.46780779, 6.52878243, 14.10762205
13.56465997, 4.52769257, 8.40386816, 9.07606743, 19.09384718, 12.39253808, 6.37573525, 12.60456267
23.73657515, 4.61519230, 8.01716908, 9.80561064, 18.78363650, 12.08097678, 7.85970737, 17.42125139
25.37419949, 4.28660705, 7.73466224, 8.88115983, 18.15764302, 9.39015442, 7.29725976, 18.84675038
19.55505050, 4.69041576, 7.15192282, 8.53961357, 18.06239187, 9.82344135, 5.93927605, 14.83071138
23.66009298, 4.06509532, 6.54599114, 8.40684245, 19.10431888, 12.11404144, 6.68580586, 13.72133375
24.92137637, 3.39852909, 6.58217289, 8.14401621, 16.10279479, 10.74243920, 5.66347950, 15.08890321
22.27835272, 3.37268439, 6.69888050, 8.06690771, 15.04243996, 9.86407624, 5.17928567, 15.75277753
21.28144732, 3.47131099, 7.00713922, 8.38749069, 14.95743962, 11.99895829, 7.86606636, 14.95911094
18.76899038, 3.62629287, 6.08892437, 7.45821695, 12.67773639, 10.71330948, 8.19298480, 13.08243097
14.94824404, 3.69459064, 5.56327242, 6.25899353, 10.27983463, 7.75403121, 6.90832831, 14.14125171
11.44770719, 3.65376518, 6.06630036, 7.22322643, 13.68027777, 10.00374930, 7.89620162, 13.83564238
16.16709621, 3.77491722, 5.97913037, 6.76572243, 14.21794641, 11.16467644, 6.83008053, 12.22497444
16.46511464, 4.67172345, 7.20069441, 8.02340327, 21.94253860, 16.88712527, 6.51152824, 14.59537598
17.68968626, 6.25699608, 14.50000000, 10.44629121, 24.42079032, 20.06489472, 10.84204778, 15.83745560
25.62030445, 6.45755372, 20.12647510, 11.65868775, 24.56521932, 18.69558771, 13.46384046, 14.60136980
24.56623699, 6.73980712, 23.26424295, 11.37541208, 24.92789602, 17.87106600, 11.71324037, 14.47929556
20.68211788, 8.28854631, 25.79728668, 11.26831842, 23.53136205, 31.30375377, 15.10297984, 14.73431369
17.97428719, 7.74919351, 22.04710865, 12.94990347, 20.89617190, 32.44765015, 19.85006297, 13.79945651
13.03361040, 5.61916364, 15.41833324, 11.03177230, 17.19084058, 21.36878565, 16.74813422, 11.92266749
14.69608791, 6.26897121, 15.49112649, 9.11317727, 18.97234830, 22.43100533, 10.98180313, 9.84504952
14.99833324, 6.49807664, 14.73176839, 10.06603199, 25.39881887, 27.19328961, 12.01457448, 10.74709263
14.15008834, 5.51361950, 11.05780268, 9.02219485, 24.73408579, 23.37894352, 11.34350034, 15.96010652
14.43693181, 4.94216552, 10.61838029, 7.89145107, 13.50370320, 10.21028893, 7.06753139, 15.38180744
11.73243368, 4.90153037, 11.78452375, 6.03531275, 13.13202193, 9.37816613, 5.07444578, 10.71097568
10.61013666, 5.03736042, 12.53694540, 7.65996084, 12.75931033, 10.96699594, 5.24642736, 10.28469737
14.28898177, 5.31977443, 11.55097398, 10.24207010, 16.60572191, 11.31039345, 5.53624421, 11.87644728
14.86270500, 6.30079360, 10.93160555, 9.50131570, 17.96733147, 9.33139861, 5.69649015, 14.05613745
13.27215130, 5.70745127, 12.12744821, 8.14708537, 15.96245595, 10.57827963, 6.14817046, 13.80670127
12.94507628, 5.01248441, 11.62647840, 8.08238826, 16.73917561, 11.84166373, 5.77278096, 14.05257983
12.37840862, 4.80884602, 10.74476617, 9.29784921, 17.95828500, 10.97497153, 5.54977477, 15.16575089
12.56582667, 6.08687112, 10.94303431, 10.16612020, 17.64086166, 9.65012953, 4.76707457, 13.49166409
13.65100729, 6.62004532, 11.60172401, 10.43791167, 13.66199107, 8.36510610, 4.48608961, 13.67936402
14.61420542, 5.02493781, 10.26157883, 11.16243701, 14.10850807, 9.73524525, 4.90662817, 15.56920036
12.87245120, 3.89551024, 9.93101203, 11.23165170, 16.83523092, 10.01873245, 5.45664732, 12.91413954
11.44661522, 3.85032466, 10.34287194, 10.31261364, 16.40655357, 10.35857133, 6.00624675, 13.62075622
16.02342036, 4.79061583, 10.37183687, 8.76641318, 15.94521872, 8.83883476, 5.11126208, 16.26729848
15.74325252, 4.51109743, 10.30776406, 9.66824700, 16.88490450, 7.70876125, 4.67707173, 13.37161172
11.64903429, 3.71819849, 8.45724541, 10.80162025, 15.03163331, 10.88462218, 6.74722165, 11.75797602
16.02498050, 3.90192260, 9.07055676, 10.46780779, 13.76045057, 10.67122299, 6.62947962, 13.00288430
17.49714262, 4.30406784, 9.93730346, 9.34344690, 14.52067492, 9.01387819, 4.22788363, 14.63130206
13.26461458, 4.27200187, 8.62264461, 7.85970737, 12.87730562, 9.48683298, 4.28660705, 14.88287607
12.61447581, 3.57071421, 8.69338829, 8.95125689, 14.64667198, 10.04863175, 4.41588043, 13.47033778
13.19753765, 3.85356977, 8.92888571, 9.32067594, 16.38825799, 11.48368408, 4.35028735, 14.00357097
12.86856635, 4.10182886, 9.08019824, 9.10768906, 16.93443238, 10.98521734, 5.68770604, 12.88506888
16.95066370, 4.12007281, 7.67137537, 9.89949494, 17.83255450, 10.18945533, 5.58569602, 13.21930407
16.99558766, 4.29534632, 9.08707874, 8.98888202, 16.51363073, 10.47258325, 4.37892681, 12.95858789
14.74449050, 4.74605099, 11.51846344, 7.79422863, 14.02497772, 12.22395190, 4.49165894, 11.92371586
14.16774506, 6.34428877, 15.70509471, 8.38152731, 15.64368882, 14.40052082, 10.95445115, 12.56483187
11.55205609, 5.86515132, 15.05739021, 8.36809417, 17.05139290, 14.36923798, 12.46394801, 11.31812705
16.30260715, 4.15331193, 9.79413090, 7.19374728, 14.14920492, 15.79002850, 8.51175658, 13.65833079
17.60113633, 4.19523539, 9.61899163, 8.98749131, 14.88119619, 15.42886904, 6.71192968, 14.48878877
13.27591805, 4.14125585, 9.70695627, 9.18150314, 15.03246487, 11.27275477, 5.44058820, 11.17810360
10.18822850, 4.18927201, 9.28708781, 7.11688134, 15.11621646, 10.36942621, 6.11759757, 9.08845421
8.98888202, 3.57071421, 7.72172261, 10.26645021, 19.10301023, 14.12798641, 7.98905501, 9.68504001
9.87041033, 2.81069386, 6.58407169, 10.30169889, 18.25308193, 14.25394682, 6.92278846, 10.25914226
8.92188321, 2.73861279, 5.80947502, 8.46906134, 16.34089961, 11.30486621, 5.56551884, 11.73243368
9.24662100, 3.57071421, 5.79870675, 9.75961065, 18.31051610, 13.56558145, 7.65506368, 13.01537552
9.86027383, 3.84057287, 5.22254727, 9.13509715, 16.95951061, 14.78850905, 6.97495520, 14.52153573
10.22252415, 3.21325380, 4.18927201, 8.24014563, 16.19876539, 14.53186155, 7.03562364, 16.10434724
8.72926114, 3.07408523, 5.03487835, 7.47328576, 15.10380747, 12.94121324, 7.71524465, 13.26178721
8.57029754, 3.59861084, 6.63324958, 7.68277294, 13.77588473, 9.89444288, 7.44815413, 11.07023035
8.89100669, 3.60555128, 6.54790043, 7.97182539, 15.26188062, 10.25914226, 7.83581521, 10.42832681
8.06535802, 3.38008876, 5.23211238, 6.87568178, 13.90683285, 9.34612219, 6.54217089, 11.79724544
12.88409873, 4.71963982, 5.90973773, 8.95544527, 12.71613149, 8.05605362, 6.03324125, 13.74681781
12.70924860, 5.18652099, 8.29759001, 10.05733563, 16.38444384, 10.67473653, 6.94082128, 12.67181913
11.94780315, 4.48051336, 9.65660396, 10.74011173, 16.65232716, 17.98819057, 7.08872344, 13.62534403
15.62530000, 5.09165985, 10.99772704, 10.40312453, 13.95797263, 23.90711191, 6.41482658, 14.85260920
13.52497689, 5.22733202, 10.73079680, 9.02496537, 12.35111331, 18.60443496, 6.57076860, 13.95080643
10.92130945, 4.71699057, 9.48815050, 9.38616002, 15.91147385, 9.88306633, 6.30476011, 11.13328343
16.15317306, 4.87852437, 10.21763182, 9.65012953, 18.02082129, 12.38042810, 6.80257304, 10.82012015
14.88455575, 5.22015325, 10.29684418, 9.93101203, 15.86032787, 10.30048543, 6.32257859, 10.04116527
11.96139624, 5.21775814, 10.19190856, 8.39642781, 13.61065759, 9.15696456, 4.85798312, 9.18286448
12.14804511, 4.11400049, 9.90328228, 8.43504594, 17.56203291, 10.03369324, 5.50454358, 10.01374056
13.08434179, 4.08044115, 11.71324037, 9.18286448, 19.63033367, 9.69149111, 5.38748550, 9.96242942
13.57847561, 5.97076210, 13.91851285, 9.23173873, 18.08175876, 9.36082261, 5.16478460, 10.87428159
11.02497166, 6.28490254, 13.07382882, 8.69770085, 18.33848412, 9.84885780, 5.31507291, 12.56582667
14.70714112, 6.52111954, 13.61065759, 8.83317610, 14.99499917, 14.25482374, 7.49666593, 12.17887515
16.31333810, 10.96813567, 17.73344298, 12.31462545, 15.53866146, 19.47177444, 13.96155435, 9.73267692
13.43781976, 13.66016105, 22.71728417, 13.98302542, 18.50675552, 24.01197618, 19.48204301, 10.63954886
12.16552506, 10.90183471, 23.83170158, 13.49536958, 15.30359435, 23.67804891, 16.21650394, 11.05554160
11.10630452, 6.96957674, 23.14951403, 15.23482852, 11.49565135, 18.23115465, 11.88381252, 10.12299363
16.45828059, 9.46308618, 26.28117197, 16.57784666, 14.36923798, 17.17847490, 12.25867040, 9.69793793
18.20508171, 10.12175874, 22.96464674, 14.02230366, 14.04101136, 14.99666630, 8.46167832, 12.64021361
12.13672114, 7.66322386, 13.82117940, 10.30048543, 13.58215741, 12.68562178, 6.97495520, 12.49799984
10.80509139, 5.95818764, 12.01769529, 10.24573082, 12.58570618, 13.33979010, 6.00208297, 9.10357073
12.43382483, 5.38748550, 14.54819576, 12.43080850, 13.51295675, 13.47219359, 7.58287544, 9.89949494
12.81990640, 6.52495211, 16.56200471, 11.67690027, 13.43595921, 14.39270649, 8.77211491, 9.87294282
12.08718329, 7.37054950, 21.73821520, 10.51427601, 15.23236685, 19.03549316, 7.58781919, 10.36219089
12.03017041, 8.31264098, 25.15750385, 11.76541542, 17.75246462, 18.02983638, 6.02702248, 11.17362967
12.65009881, 7.93410360, 20.76114159, 12.35010121, 16.21804550, 10.33198916, 4.41588043, 10.02122747
12.51698846, 7.41114026, 18.25376673, 12.88409873, 15.10794493, 9.56948274, 4.27492690, 11.88065655
11.62432794, 7.51831098, 19.58443259, 11.28826825, 13.09675532, 10.47497017, 5.10881591, 12.39354671
11.75159564, 8.43504594, 23.57435047, 11.68546105, 12.62141038, 11.67690027, 6.50768776, 12.32984185
11.87960437, 8.11942116, 24.77650096, 11.92057046, 12.03432591, 13.58307771, 7.48832425, 12.20860352
9.94107640, 7.41282672, 23.11168536, 9.76601249, 10.92817460, 13.52682520, 6.91375441, 8.98610038
9.13372870, 7.97966165, 22.41428116, 11.79724544, 12.49899996, 12.35718415, 5.13809303, 9.53283798
12.51898558, 7.89936706, 21.32662655, 12.53096166, 14.42133836, 13.22781161, 5.97703940, 9.11317727
11.79936439, 7.00000000, 18.42823920, 10.45944549, 15.43534904, 18.54588903, 8.85014124, 10.19926468
15.44263579, 6.12372436, 15.22415843, 8.78635305, 14.35008711, 21.87635710, 9.02635031, 15.43777834
17.65148719, 8.51616111, 18.81090109, 11.90588090, 15.57722697, 24.47498723, 6.76017751, 17.80449381
16.49772712, 9.09120454, 20.25339478, 13.46476884, 14.37445651, 23.38108210, 6.77679865, 15.14348045
18.15488915, 7.07990113, 16.65908161, 11.01022252, 11.34790730, 16.24115144, 7.46491795, 13.07096018
17.09970760, 7.78620575, 18.03191615, 11.86486410, 13.50000000, 15.08973161, 6.75092586, 14.78259111
15.05074749, 7.43471587, 17.00441119, 11.79406630, 11.57259694, 16.76156317, 7.92464510, 14.47756886
18.10455744, 4.50000000, 9.85646996, 8.29759001, 9.31799335, 14.46720429, 7.28697468, 12.35111331
17.58195097, 7.49666593, 18.00347189, 10.92931837, 13.17858111, 11.35891720, 6.29682460, 10.09826718
17.25905559, 7.84219357, 18.93541655, 10.95787388, 14.66032060, 13.48981097, 7.16065639, 9.59426912
17.82273829, 5.58793343, 14.13594709, 11.03743630, 13.33885302, 16.83820062, 7.39932429, 15.73769360
14.73007128, 6.58786764, 15.62849961, 11.21828864, 13.75681649, 14.46201922, 7.40945342, 15.99687469
14.72667648, 6.02909612, 15.83745560, 8.85155354, 13.20321930, 9.82344135, 6.71006706, 12.15935854
12.52697090, 4.22492603, 15.82245240, 11.06684237, 13.72497723, 9.90075755, 5.59016994, 12.82478070
12.08304597, 4.57984716, 16.40731544, 11.20825589, 16.30260715, 11.15795680, 4.94722144, 13.47590442
15.42319682, 4.90407993, 14.17568341, 9.25202680, 15.89654050, 12.11197754, 5.75543222, 14.94573518
15.70668647, 4.75394573, 9.32737905, 8.90224691, 14.57652222, 11.76435294, 4.98998998, 12.88021739
14.85681662, 6.07453702, 13.45455313, 9.58514476, 13.81213235, 10.71914176, 5.10392006, 11.93628921
13.91042774, 6.86658576, 19.26395598, 11.58123482, 13.11011060, 11.56935608, 5.57000898, 14.17744688
13.72770920, 7.74273853, 20.21385663, 13.37254650, 14.98999666, 12.34503949, 5.88217647, 13.58307771
13.70218961, 7.79743548, 18.52160900, 11.74095396, 18.58090418, 15.71782428, 7.24913788, 10.97269338
13.02305648, 6.53452370, 17.20319738, 10.11928851, 18.74899997, 17.84656830, 7.12390342, 13.42292815
13.08051987, 6.75092586, 17.31112359, 11.55854662, 17.27208731, 14.90134222, 5.71620503, 13.77588473
10.57591604, 6.62382065, 17.94157184, 13.10629620, 16.20262324, 15.51692624, 5.91185250, 9.62938212
10.34528878, 5.35490429, 15.51370362, 12.04989627, 13.70948577, 17.32772345, 7.11161023, 14.20475273
13.71313239, 4.13521463, 12.50299964, 9.34612219, 11.95826074, 17.23441325, 8.04829174, 16.52271164
12.88021739, 3.98434436, 11.92371586, 11.05214911, 11.13552873, 15.28970242, 7.41956872, 14.43779762
9.70051545, 4.46374282, 13.26084462, 11.68225150, 13.47590442, 14.07746426, 5.68990334, 11.91637529
9.77880361, 4.27784993, 13.46012630, 10.87198234, 14.53444185, 14.59965753, 5.36889188, 10.69462482
11.84377474, 4.02802681, 11.55205609, 10.14026627, 13.57203006, 16.74888056, 6.24899992, 10.67941946
13.31728200, 4.12613621, 10.52853266, 8.52496334, 15.23400801, 18.83878977, 9.30456877, 11.23165170
12.61744824, 3.81772183, 8.15322022, 8.21279490, 17.52212887, 18.42891749, 9.45383520, 13.26555691
12.06648250, 4.13219070, 8.96799866, 7.02139587, 17.80940763, 15.67561801, 7.25603197, 11.98749348
11.28826825, 4.36176570, 10.83743512, 8.88115983, 16.71900117, 16.12296499, 8.77923687, 12.49799984
11.87960437, 3.81116780, 8.32316046, 9.99749969, 15.13439791, 20.12647510, 9.64753855, 13.79764473
11.47170432, 4.41588043, 8.70344759, 9.55902715, 15.81217885, 20.19777215, 9.77752525, 13.40801999
10.44030651, 5.21056619, 11.63077813, 10.19803903, 14.75635456, 14.98749479, 8.72926114, 12.45291131
9.72753823, 4.33012702, 10.71330948, 8.66169729, 13.07669683, 12.04678380, 7.50499833, 10.68410034
8.54692927, 3.24807635, 7.70227239, 7.38410455, 13.51573157, 14.53702170, 9.66566087, 12.49699964
8.63712915, 3.33916157, 5.65906353, 8.55131569, 12.53694540, 14.41440252, 9.99249719, 12.81600562
8.87130205, 3.38747694, 7.29554659, 8.15475322, 12.03432591, 15.52739515, 9.88053642, 11.05780268
10.98635517, 3.60208273, 7.98279400, 7.97339326, 11.98853619, 14.36140662, 9.39148551, 11.14786975
13.08529709, 3.94968353, 8.88960067, 9.05814551, 13.24103470, 17.78341924, 8.79914769, 15.03329638
15.44506394, 3.87943295, 8.52496334, 7.81984655, 12.10165278, 18.75366631, 8.26589378, 15.55313473
16.36383207, 3.99687378, 10.18577439, 8.33816527, 13.75045454, 12.72595772, 9.67212490, 13.92928570
14.53530185, 4.46654229, 12.09131920, 9.46836839, 15.04410183, 12.30243878, 10.39591266, 13.80398493
12.53195914, 4.08962101, 9.86027383, 10.83628165, 12.41168804, 17.87596151, 9.59035974, 11.09617051
12.76028997, 3.87620949, 8.86848352, 11.34129622, 13.97497764, 18.61786776, 10.23962890, 12.42074877
13.71313239, 3.69797242, 8.25832913, 8.04984472, 14.37532608, 14.57995199, 9.47364766, 12.94700738
12.38345671, 3.71483512, 5.53624421, 7.76852624, 16.34701808, 15.13935269, 8.09783922, 11.66511894
12.53495114, 4.84767986, 7.47663026, 9.05676543, 19.19049244, 18.54858485, 7.62889245, 12.65108691
12.53694540, 4.41304883, 7.96711993, 8.52642950, 17.41479256, 17.18865905, 8.01405016, 13.85550432
10.51784198, 3.80788655, 5.96657356, 7.16589143, 14.17568341, 12.23928102, 7.54155156, 12.74166394
9.60468636, 4.46094160, 7.06753139, 6.78601503, 13.17288883, 11.82581921, 8.12249962, 10.25060974
9.90328228, 4.10182886, 9.71853898, 7.47495819, 17.52712184, 12.49499900, 9.68633057, 11.81418639
10.82243041, 4.53872229, 8.65881054, 7.84856675, 17.27281100, 15.90990258, 9.73652916, 13.77951378
9.42204861, 6.16238590, 4.73814310, 8.46020094, 13.84557691, 16.65532948, 11.68225150, 12.94990347
8.67611664, 6.72123501, 7.21283578, 11.40065788, 16.54841382, 13.91581834, 10.15874008, 12.76322843
8.07000620, 5.77061522, 8.14248119, 11.03970108, 19.10235588, 12.43985530, 6.52495211, 13.53144486
7.18679344, 4.28660705, 5.80947502, 8.40535544, 17.14934401, 15.36961288, 8.33666600, 13.92120684
7.82783495, 4.21604080, 4.02802681, 11.54231346, 12.48499099, 14.25306984, 8.26286875, 12.78182303
7.51664819, 4.15932687, 3.59165700, 11.49782588, 13.33791588, 9.16651515, 7.85015923, 9.55902715
8.07774721, 5.10392006, 4.35889894, 10.87887862, 14.12267680, 11.44879906, 8.55423872, 8.29608341
9.77624672, 5.28913982, 5.04727649, 10.89495296, 14.49137675, 13.41733953, 7.71524465, 12.28515364
12.70137788, 4.36749356, 4.73286383, 8.19451036, 15.95462315, 15.27170586, 5.90550591, 14.98666074
12.08614910, 4.64219776, 6.74351540, 7.90569415, 16.80476123, 14.31258188, 6.48652449, 13.03936348
9.30188153, 5.00749438, 9.35681570, 10.14642794, 17.16391564, 10.48451239, 6.13188389, 12.34807677
10.29563014, 4.97242396, 7.75725467, 10.03618453, 16.31027284, 12.36729558, 6.73609679, 13.89514304
12.54192968, 4.08962101, 7.43639698, 9.11592014, 19.56016360, 16.51590143, 7.48999332, 13.92838828
13.23820229, 3.63318042, 9.05676543, 8.82609767, 18.68020343, 16.42939439, 7.72981242, 13.13392554
15.85875153, 6.01872079, 10.43312034, 7.52163546, 13.03744607, 19.08140456, 12.15010288, 13.11583013
15.06734880, 6.40897808, 12.26682518, 10.17349497, 15.60128200, 24.51734080, 14.41787086, 11.96662024
10.63954886, 3.97177542, 9.10494371, 11.12542134, 18.59637061, 22.48277118, 11.52171862, 10.19803903
8.96939240, 3.25576412, 5.56551884, 8.11017879, 19.88969582, 16.47725705, 12.96148140, 9.40611503
8.42763312, 4.43283205, 11.51629281, 8.09011743, 17.74894363, 13.20227253, 11.97288603, 9.64624279
10.00124992, 5.39212389, 13.88164255, 9.47364766, 15.56759455, 11.93524193, 4.84510062, 10.72030783
10.40913061, 5.39675829, 12.84425942, 9.79668311, 14.16421547, 10.75871740, 4.82959626, 12.86953768
10.58064270, 4.47213595, 11.61464593, 9.77368917, 13.15389676, 7.32461603, 5.01248441, 13.76862375
9.27766134, 4.59619408, 10.49166336, 8.43652772, 12.96630248, 4.98497743, 4.14427316, 11.65761554
7.66159252, 5.14295635, 13.02305648, 8.51322501, 15.25614630, 6.06011551, 3.85356977, 10.61367043
9.35147047, 5.54752197, 16.37375949, 10.04987562, 17.14715720, 6.81725751, 4.28077096, 12.13981054
9.47892399, 5.47037476, 14.60736116, 8.85861163, 13.46848173, 8.73498712, 3.62973828, 11.24055159
7.37902433, 4.74078053, 8.96102673, 6.43622560, 13.25141502, 8.86002257, 3.73831513, 7.87083223
7.32802838, 5.28913982, 8.85861163, 6.59734795, 15.51128621, 8.13480178, 4.29825546, 8.54400375
7.17983287, 4.76969601, 11.16691542, 8.88538125, 12.79062156, 7.05868260, 3.42052628, 10.04116527
7.45150991, 3.90832445, 11.06571281, 10.76104084, 9.30053762, 5.31742419, 3.12249900, 11.16803474
7.84538081, 3.67423461, 9.42337519, 9.80433578, 15.85402157, 10.40312453, 6.24699928, 10.84781084
8.42466617, 5.43599117, 9.54856010, 7.66485486, 18.17897137, 17.44133022, 8.63278634, 12.48799423
11.62002582, 6.20886463, 9.89191589, 7.56637298, 15.30522787, 19.67930385, 9.27227049, 14.36488775
12.09338662, 5.18169856, 10.17718036, 8.73498712, 14.61591598, 18.11560101, 7.85811682, 14.62959330
10.57000473, 4.68508271, 9.86787718, 8.49411561, 13.93287479, 18.47633622, 5.77927331, 13.69123807
11.83955236, 5.22733202, 10.21028893, 7.96868873, 16.46283694, 17.69180601, 5.61471282, 12.42980289
19.85195205, 7.91675439, 14.51120257, 8.50441062, 17.66847475, 20.71231518, 6.65957957, 14.32916606
21.98237931, 16.29877296, 34.96069221, 14.97581383, 16.24961538, 37.11502391, 21.77728174, 14.90805152
18.74499933, 23.02390063, 54.98045107, 26.29686293, 20.08917619, 40.94844319, 26.42016275, 16.97792685
19.09057359, 20.38443033, 50.68259070, 29.42447960, 24.97849075, 33.46042438, 24.59878046, 18.73165769
19.66405350, 14.03299683, 36.20255516, 25.95958397, 24.12985702, 32.31447044, 22.43044806, 15.60048076
17.99374891, 15.62049935, 42.09067593, 19.97873870, 18.01457743, 32.41488855, 19.68374964, 13.74863630
17.48284874, 16.08570794, 40.25108694, 14.99666630, 17.46639631, 34.08665428, 16.72722332, 12.90639376
15.72259521, 12.99422949, 32.80167679, 16.26576159, 17.92902674, 30.94066903, 11.31149857, 13.72133375
11.59741350, 10.21028893, 27.01018326, 16.18023486, 17.10116955, 20.66760751, 13.80941708, 15.52175892
12.73872050, 8.11326075, 19.98812147, 13.88794441, 17.13111205, 20.94218231, 13.24481030, 12.89961240
16.10357103, 7.33655232, 19.09253781, 11.73243368, 14.98666074, 25.14657034, 11.59525765, 10.36822068
19.45893111, 8.23862853, 18.60846582, 12.59861103, 19.00197358, 30.90550113, 16.45220350, 10.31624932
17.75528090, 8.40535544, 17.91228629, 10.72497086, 18.59166480, 31.19895832, 18.06792739, 12.56980509
13.37628499, 6.38161422, 13.34166406, 9.21140597, 13.49444330, 23.96507876, 12.16449752, 13.90323703
10.75523129, 5.48178803, 11.70363191, 8.85296560, 12.60357092, 20.77378155, 8.32616358, 12.88021739
8.63133825, 5.87792480, 13.68575902, 9.05124301, 13.15674732, 20.05430128, 8.36510610, 12.21679172
8.79488488, 5.16478460, 13.51018135, 8.93168517, 15.57401682, 22.07090845, 7.31436942, 10.35857133
8.94706656, 6.71192968, 18.96509953, 11.60818677, 14.94238937, 20.65792826, 6.59545298, 9.00416570
7.78620575, 7.50000000, 19.23863301, 11.96662024, 18.89378205, 14.69523732, 5.47265932, 11.12879149
6.87386354, 6.68393597, 17.29161647, 10.67590746, 18.81953772, 8.30210817, 4.88108594, 11.18257573
7.31436942, 7.16763559, 19.41841909, 10.50238068, 12.45592229, 7.24913788, 6.22896460, 12.14804511
8.82043083, 6.71565336, 16.62152219, 8.63568179, 13.26744135, 8.33366666, 6.98212002, 12.85884909
10.91329464, 6.60870638, 16.18177988, 10.13286731, 15.61329562, 12.12847888, 5.95818764, 13.52220396
11.12429773, 6.25299928, 14.90888997, 10.41033141, 14.52669956, 12.24234455, 5.43599117, 12.45391505
8.89803349, 4.98748434, 12.83744523, 11.54664453, 11.08264409, 10.55461984, 6.34034699, 8.49411561
9.68891119, 5.47950728, 12.36527396, 11.57583690, 17.20101741, 13.74590848, 6.03116904, 11.12991464
10.99317970, 4.73022198, 10.71447619, 8.83742044, 17.46281764, 12.06441047, 4.88364618, 15.78448605
9.09532847, 4.56344168, 12.43784547, 9.33675533, 10.90412766, 7.28354309, 4.74605099, 16.27037185
8.68187768, 4.74341649, 11.76010204, 9.79413090, 10.36942621, 9.43795529, 5.71839138, 14.46288353
10.89724736, 4.00624512, 9.52234215, 9.31128348, 12.93058390, 13.46848173, 7.30410843, 12.75539102
12.71613149, 4.77755167, 11.49347641, 10.05111934, 15.46285873, 21.16128541, 8.40684245, 11.50434700
14.29597846, 8.94566934, 24.61249683, 15.21758851, 15.74087037, 44.20718267, 16.04914328, 12.20757961
14.04813155, 23.59978813, 48.05153484, 21.16364808, 14.16245035, 45.03970471, 22.25084268, 11.13665120
11.89012195, 25.22300537, 54.20977772, 23.58813261, 14.50258598, 37.24748314, 22.41985727, 10.93503544
10.08092258, 14.67225272, 40.48641748, 20.33592880, 13.70675016, 38.13823541, 18.90965362, 11.10292754
13.79130161, 11.23165170, 29.82029510, 14.20035211, 18.34257343, 34.50615887, 21.93342199, 15.35089574
15.22908402, 8.59069264, 22.27274119, 10.34045454, 21.34947306, 32.24050248, 22.27274119, 15.68837149
14.05435875, 6.94262198, 13.86903025, 8.42614977, 17.76231967, 31.34525482, 15.48224790, 9.67987603
12.00624837, 6.08687112, 11.19933034, 8.02651855, 17.83886207, 28.12961073, 11.43896848, 8.53522115
12.20143434, 3.60555128, 6.10532554, 7.79903840, 19.99937499, 16.02888019, 8.08238826, 9.54201237
13.39029499, 3.35410197, 6.11555394, 9.77624672, 23.37520053, 25.37272157, 7.70876125, 11.73136821
11.64796119, 3.41686991, 8.35763124, 9.89065215, 22.30134525, 29.38622126, 9.60598772, 14.75466028
13.10438858, 4.08350340, 8.57612966, 8.29759001, 19.52242301, 26.46790509, 10.59481005, 14.70544117
12.21576850, 3.95284708, 6.63890051, 7.49833315, 16.37146908, 21.47032836, 8.86566410, 12.29634092
9.69535971, 3.27490458, 5.27019924, 7.28525909, 13.33135402, 19.95432284, 7.38241153, 10.76684726
8.33366666, 3.09030743, 5.19615242, 8.36660027, 21.78302091, 25.03797116, 8.06070717, 9.22496612
8.50881895, 2.45967478, 6.23297682, 9.19646671, 23.95255727, 22.82159065, 7.33825592, 8.57175595
10.98863049, 3.92109679, 11.48586087, 9.62029106, 19.94993734, 17.73555750, 7.75403121, 8.14708537
12.73675783, 5.89915248, 14.85345078, 9.45251289, 21.37054047, 20.21323824, 7.49666593, 9.81070844
12.35718415, 6.04772685, 12.77791063, 8.54839166, 20.90753453, 23.88252499, 6.87749955, 12.24030228
9.49341877, 5.00000000, 11.62110150, 7.89936706, 17.91228629, 18.22018112, 6.76017751, 11.28716085
8.68187768, 3.93064880, 10.44030651, 7.02139587, 16.76827361, 10.19313494, 6.39140047, 11.91742422
10.78656572, 2.76134025, 5.27494076, 7.90727513, 16.39435879, 10.79351657, 6.93361378, 13.76499183
10.98407939, 2.82400425, 4.08656335, 8.88538125, 14.65179170, 18.64403390, 6.41092817, 12.24642805
9.82598596, 2.87662997, 5.01497757, 8.68331734, 13.53513945, 18.79428105, 5.79223618, 10.09950494
8.97775027, 3.75166630, 10.67005155, 9.94610477, 16.50075756, 10.32956921, 4.57165178, 8.66169729
7.74435278, 4.16233108, 11.30486621, 9.33407735, 16.85971530, 11.60172401, 5.10636857, 9.97246208
8.98888202, 3.80788655, 8.56738000, 8.79914769, 14.89127261, 11.30265456, 5.00000000, 11.88907061
10.44629121, 3.94017766, 10.62426468, 10.20294075, 15.31992167, 7.81344994, 3.77160443, 10.84320063
10.54751155, 3.29772649, 10.65833008, 9.41275730, 15.00000000, 7.62725377, 3.47491007, 11.79300640
10.20906460, 2.91118533, 7.67789034, 8.24166245, 14.24341953, 9.86787718, 3.20936131, 12.42376754
11.78028013, 3.17411405, 6.70261143, 8.32766474, 15.07895885, 10.21396103, 3.05777697, 12.32781408
12.95086870, 3.18982758, 6.73980712, 8.44097151, 13.40801999, 11.56395261, 5.97494770, 12.59662653
11.26277053, 3.08625987, 5.94348383, 9.19918475, 12.26784415, 12.77497554, 6.52686755, 9.61119139
11.59310140, 3.17804972, 8.73498712, 9.24256458, 15.97106759, 12.71318214, 6.14410286, 12.46093897
16.11288304, 7.55976190, 28.30106005, 11.46952484, 15.83982323, 22.55659549, 7.85652595, 15.23072552
18.70828693, 11.95303309, 37.34568248, 14.61163920, 13.29097438, 33.36502660, 13.43502884, 13.05852212
14.13417843, 11.88907061, 29.90568508, 13.50277749, 14.28898177, 35.00285703, 15.77418778, 11.69294659
11.83321596, 10.27375297, 23.33720206, 10.78772451, 13.96692522, 29.49364338, 15.21430248, 11.02383781
13.37441588, 12.11816818, 27.08228203, 17.54850421, 13.96782016, 29.54488111, 15.49838701, 10.33561803
10.73894781, 11.31481330, 25.47253423, 18.34189194, 12.97593927, 28.54908055, 13.64734406, 12.02497401
9.83615779, 7.34166194, 16.86564556, 10.93503544, 10.91902010, 19.83431370, 10.54039847, 11.48586087
8.29156198, 4.76707457, 10.64072366, 7.72010363, 11.79088631, 14.20739244, 6.65957957, 9.10494371
8.29156198, 3.77491722, 9.86914383, 7.33314394, 14.14567072, 16.18332475, 7.01248886, 10.81318639
9.71982510, 4.28077096, 9.73267692, 8.16547610, 15.00833102, 19.04468430, 7.84697394, 12.04574614
7.76369757, 4.43001129, 10.01873245, 7.87559522, 15.35252422, 20.91231694, 9.37016542, 10.91673028
5.74456265, 3.39116499, 8.30511890, 7.94197708, 12.79648389, 21.70771752, 10.15135459, 9.12962212
6.55934448, 2.31840462, 3.91152144, 7.30753036, 9.51314880, 18.08936151, 8.90645833, 7.02673466
7.05159556, 2.71108834, 3.99687378, 7.17112265, 11.18704608, 12.65701387, 7.24741333, 10.13533423
6.63701740, 2.65518361, 4.14125585, 7.50000000, 11.64152052, 10.54514106, 3.95600809, 10.87658034
7.65832880, 2.77938842, 4.65564174, 8.02963262, 14.18185460, 18.07415282, 4.96739368, 8.88678795
7.74596669, 2.85043856, 4.16533312, 8.52936105, 16.05070092, 23.21260433, 6.31466547, 9.27092228
6.05805249, 2.49499499, 2.49499499, 6.47302093, 15.70748229, 21.92145068, 7.13091859, 8.25227241
8.72353140, 2.31840462, 3.36154726, 6.86840593, 15.41590088, 19.65578795, 6.23498196, 6.73052747
9.59687449, 2.58843582, 4.06509532, 7.94512429, 12.73872050, 19.58187938, 5.47722558, 7.82464057
7.70713955, 2.60768096, 3.76497012, 7.25775447, 9.01803748, 17.85777142, 5.47950728, 10.30776406
6.71379178, 2.58360214, 3.43874977, 8.04673847, 9.07055676, 14.67991826, 5.56327242, 10.10940156
7.38410455, 2.73404462, 4.16833300, 10.17226622, 11.92790845, 14.71308941, 5.07690851, 8.66025404
8.40684245, 2.52487623, 4.03422855, 9.20326029, 12.23825968, 14.02497772, 4.34741302, 8.62554346
8.16700680, 1.92353841, 2.77037904, 8.30511890, 10.87313202, 18.57350263, 4.85798312, 7.56306816
9.10768906, 2.38222585, 3.30151480, 9.02496537, 10.41033141, 18.26198237, 5.99374674, 9.25472852
9.32067594, 2.81957444, 3.43511281, 7.73304597, 10.52615789, 13.13773192, 6.24899992, 10.32109490
10.66536450, 3.51425668, 3.85681216, 7.55645419, 10.64307286, 21.07664584, 9.66048653, 11.95198728
10.18700152, 3.81772183, 6.65770231, 9.53021511, 11.99895829, 21.99602237, 9.81453004, 10.93160555
7.98592512, 4.44409721, 8.58341424, 11.18145787, 11.94571053, 20.64945520, 7.56637298, 5.77278096
10.80856142, 5.23450093, 8.99583237, 9.56033472, 11.05780268, 25.61249695, 8.68475676, 11.91007976
10.93617849, 4.45813863, 8.71779789, 7.64198927, 10.31867240, 26.20353030, 7.58617163, 13.38282481
8.61974478, 3.62973828, 8.54546663, 9.65271982, 8.20365772, 19.43707797, 6.51344763, 8.90926484
9.67083244, 3.39116499, 8.49117189, 10.64424727, 12.99903843, 9.97622173, 5.53624421, 9.97246208
10.06975670, 3.35410197, 7.79583222, 9.08157475, 15.61569723, 7.80864905, 4.60434577, 10.49285471
8.79630604, 3.46770818, 6.87749955, 7.90727513, 13.88164255, 9.50000000, 4.46654229, 8.37705199
8.37854403, 4.10791918, 8.59651092, 7.50166648, 13.61341250, 10.17472358, 4.76707457, 9.80433578
10.70980859, 4.45252737, 9.37149935, 7.45989276, 13.04223907, 8.55423872, 5.08183038, 10.96357606
11.30597187, 3.89551024, 7.48164420, 7.47495819, 12.99038106, 9.67858461, 4.73814310, 11.05780268
9.90580638, 3.38378486, 6.51152824, 7.52163546, 11.99895829, 8.88397434, 4.00312378, 9.36482781
12.80136711, 3.40587727, 7.25603197, 7.72172261, 9.45251289, 8.71349528, 4.27492690, 7.38748942
13.10248068, 3.67423461, 7.66485486, 7.81824789, 9.61769203, 9.58384057, 4.42153819, 7.53160010
11.01816682, 3.90192260, 6.41482658, 7.57627877, 8.68475676, 7.69577806, 2.89395923, 10.03992032
13.34728437, 4.09267639, 7.35527022, 7.92306759, 11.05328006, 8.10555365, 3.22877686, 11.68546105
15.16657509, 3.72491611, 7.56141521, 8.76926451, 12.14701609, 9.04018805, 3.63318042, 8.63423419
16.29800601, 3.13049517, 5.38284311, 10.01249220, 14.78428219, 13.82027496, 4.33589668, 7.16763559
20.83446664, 3.47850543, 4.66100847, 9.60468636, 14.96328841, 17.17265268, 4.90153037, 13.62075622
19.37201590, 3.66401419, 5.70745127, 9.03880523, 12.16552506, 15.32970972, 4.50277692, 14.09964539
14.59794506, 4.15632049, 7.94827025, 9.57470626, 11.04988688, 14.28548214, 5.51588615, 10.21640837
21.08672568, 4.38178046, 7.54817859, 8.13326503, 11.71430749, 12.99230542, 6.57647322, 11.02383781
21.39334009, 3.38747694, 6.74722165, 8.19908531, 12.58073925, 13.67570839, 5.87792480, 10.78656572
19.09908375, 3.28633535, 7.05159556, 8.90224691, 12.66589910, 13.15769737, 4.45533388, 9.56294934
21.52208168, 3.07814879, 5.40138871, 8.86143329, 12.45893254, 9.25337776, 4.96739368, 12.28210080
19.70088830, 2.98328678, 5.65906353, 9.82725801, 9.62029106, 10.54988152, 5.38748550, 13.36974196
15.37367881, 3.54259792, 7.56967635, 10.13410085, 12.76126953, 11.51846344, 5.15024271, 11.44770719
11.68866973, 3.34290293, 6.98212002, 9.19238816, 14.55592663, 10.94760248, 4.29825546, 10.12052370
9.75448615, 2.94108823, 5.81162628, 7.52163546, 10.78308861, 10.17963654, 4.29534632, 11.31481330
8.69770085, 3.24037035, 5.43139025, 6.89746330, 10.34770506, 10.93617849, 5.06705042, 11.18481113
11.07135945, 3.49284984, 5.79007772, 6.90470854, 12.70629765, 10.46541925, 4.37321392, 9.75832978
13.52590108, 3.49642675, 6.66895794, 6.92820323, 11.72177461, 7.74758027, 3.82099463, 11.38968832
11.99895829, 3.70135110, 5.96028523, 6.88113363, 13.18237460, 7.56802484, 3.58468967, 12.11610498
10.91443998, 3.70135110, 5.08920426, 7.45821695, 14.24166423, 9.07193474, 4.04969135, 12.49799984
9.73652916, 3.54612465, 5.41525623, 8.53229160, 11.47388339, 9.54986911, 4.69574275, 10.65598423
13.61433068, 3.64005494, 5.64800850, 9.25202680, 8.92608537, 7.55479980, 4.18628714, 10.17840852
15.92168333, 3.69459064, 6.29285309, 11.85432411, 10.71564277, 7.67300463, 4.40738017, 14.49827576
14.77836256, 3.43511281, 7.01961537, 11.56503351, 11.84588536, 9.08707874, 5.31742419, 16.22035758
14.24692949, 2.81957444, 5.85662019, 8.31564790, 10.44270080, 8.46020094, 4.27784993, 14.24078650
12.97015806, 2.48997992, 5.11859356, 6.95341643, 10.00000000, 9.94359090, 3.72491611, 11.15683647
12.88603896, 2.90688837, 6.31070519, 8.14708537, 11.22051692, 11.08038808, 4.06201920, 9.77752525
12.41269511, 2.71108834, 5.89067059, 9.07744457, 12.08614910, 9.47100839, 5.21056619, 9.07744457
10.54869660, 3.06594194, 4.90917508, 7.94984277, 10.91443998, 8.64291617, 6.01664358, 12.50799744
9.28170243, 3.21714159, 4.95983871, 7.60920495, 9.28977933, 9.88559558, 5.97494770, 13.78767566
12.79550702, 3.34290293, 5.07444578, 7.96084166, 9.55510335, 10.53328059, 5.42908832, 10.12546295
11.26166062, 3.50713558, 5.46808925, 8.17312670, 9.01803748, 10.12422837, 3.75499667, 9.66566087
7.37394060, 3.04138127, 4.91172068, 8.39493895, 9.12688337, 9.18830779, 3.64005494, 13.43968006
8.35164654, 3.73162163, 5.81162628, 6.92820323, 11.68118145, 10.67824892, 3.77160443, 14.13329403
9.34745955, 4.35603030, 6.09918027, 6.20685105, 10.78540681, 9.22903028, 3.24807635, 13.26461458
8.81759604, 3.35410197, 4.75131561, 8.99722179, 12.31259518, 10.50238068, 3.55316760, 13.24386650
7.49833315, 2.78388218, 4.53045252, 9.21140597, 12.82965315, 13.24197870, 5.15751878, 11.56070932
7.81984655, 3.45687720, 4.99749937, 8.22800097, 10.05857843, 11.58555135, 5.09411425, 8.89241250
7.56306816, 3.04548847, 5.41525623, 9.29516003, 10.29320164, 15.80901641, 5.15509457, 12.43985530
8.87271097, 3.09434969, 6.15223537, 8.84307639, 9.25202680, 15.03163331, 5.06951674, 13.81213235
8.87130205, 3.38008876, 6.77310859, 8.35613547, 10.78424777, 8.66458308, 4.35028735, 9.71596624
8.65592283, 3.50000000, 7.41619849, 9.46308618, 10.64307286, 9.87547467, 4.74868403, 11.14113998
9.61249187, 3.40220517, 7.68114575, 8.24924239, 10.67356548, 11.90903019, 4.13823634, 11.71110584
9.04018805, 3.20156212, 6.85565460, 6.08481717, 13.48146876, 10.63014581, 4.12310563, 11.55313810
9.54725091, 3.01662063, 5.99374674, 6.70261143, 12.32680007, 9.53677094, 4.19821391, 13.29661611
10.04863175, 2.44438131, 5.31742419, 8.96799866, 12.75833061, 10.79004171, 4.05585996, 11.53906409
8.05915628, 2.83725219, 5.77927331, 9.21411960, 12.21372179, 9.76089135, 3.66060104, 10.45227248
7.46156820, 3.25192251, 6.51344763, 7.99374756, 10.20906460, 8.88960067, 3.39484904, 12.89670501
9.78647025, 3.03726851, 5.35256948, 7.58452372, 9.98874366, 10.24817057, 3.84382622, 13.15389676
9.91715685, 2.89395923, 3.68103246, 6.83922510, 10.23962890, 10.37183687, 3.61939221, 12.16141439
8.82609767, 2.99583044, 4.18927201, 8.09011743, 10.61484809, 8.60377824, 4.91426495, 12.57179383
8.49264388, 3.01247407, 4.25147033, 9.81453004, 8.95963169, 10.17226622, 5.81807528, 10.82127534
9.96242942, 2.58360214, 4.79583152, 9.47496702, 10.21763182, 10.00499875, 4.67172345, 10.54277003
10.37063161, 2.82400425, 4.68241391, 8.12096053, 13.06713435, 8.05294977, 3.68781778, 10.72147378
9.95615388, 2.98747385, 3.25576412, 6.62570751, 12.28922292, 8.14401621, 3.72827038, 10.05609268
9.63327566, 2.94108823, 3.95916658, 7.52163546, 12.36729558, 10.92130945, 3.86975451, 10.80277742
8.07000620, 3.00000000, 4.66100847, 7.30410843, 15.15668169, 12.60059522, 4.56618002, 11.20490964
9.24256458, 2.79284801, 5.18893053, 6.95701085, 15.71861953, 15.09718517, 6.77495387, 15.36554587
10.45585960, 4.72493386, 11.24833321, 8.55423872, 14.82312383, 30.33727081, 14.73685855, 16.86712779
9.99874992, 6.95341643, 16.24346022, 11.66511894, 19.22368331, 31.77499017, 18.11698098, 16.65908161
10.74360275, 8.03896760, 17.57270611, 12.98845641, 22.85607140, 28.52104486, 16.29877296, 15.50080643
10.33803656, 7.73304597, 16.20493752, 11.42037653, 20.93561559, 34.25091240, 15.68518409, 10.50951949
11.24055159, 8.29608341, 17.31256769, 10.36460322, 18.06723554, 27.53543172, 14.19330828, 11.92371586
14.10319113, 8.13941030, 17.45995418, 11.44006119, 13.46105494, 24.79062323, 10.88232512, 15.40616760
15.81850183, 7.01070610, 15.08393185, 11.38090506, 13.33510405, 26.82163306, 12.22599689, 15.08393185
15.68598100, 8.20822758, 15.91854265, 10.70280337, 15.90754538, 23.44781440, 12.94411063, 14.97998665
14.85849925, 7.59934208, 14.65520385, 12.06544653, 17.74964788, 25.45535307, 10.90412766, 14.40225677
14.72922265, 5.62583327, 11.21940284, 11.66404733, 15.48466984, 26.18682875, 13.98838804, 13.62717872
12.41772926, 4.93457192, 8.04207685, 11.31481330, 13.31446582, 20.33469941, 12.92091328, 11.77497346
10.67824892, 3.86328875, 4.95227221, 10.28712788, 13.21835845, 13.57755501, 8.21583836, 11.88591604
9.46704811, 4.03112887, 4.73022198, 8.67611664, 12.60852886, 15.01915444, 7.90094931, 12.10061982
10.49761878, 4.53596737, 4.40454311, 9.97246208, 16.83374587, 15.75991751, 7.18331400, 9.93227064
11.72390720, 4.34165867, 5.47722558, 10.31624932, 15.93502432, 15.49193338, 6.83922510, 9.39680797
10.01623682, 4.51663592, 8.49558709, 9.36482781, 13.66199107, 14.33265502, 5.57449549, 11.46080276
10.10940156, 3.80460248, 7.85015923, 9.15559938, 14.17568341, 13.42292815, 6.71937497, 12.46795893
10.13039979, 3.64005494, 5.02244960, 8.78493028, 16.71301888, 11.31702258, 7.34336435, 10.21518478
8.40089281, 3.91790760, 5.40601517, 8.96102673, 15.53222457, 10.73661958, 6.71751442, 11.08489964
7.13442359, 3.10241841, 5.30094331, 7.72981242, 13.37254650, 11.93524193, 6.02494813, 10.77497100
8.95125689, 2.66458252, 4.87339717, 7.33484833, 17.05725652, 16.20802270, 7.71686465, 8.27496224
9.29516003, 2.45967478, 4.31277173, 10.53090689, 16.29033456, 16.08570794, 7.57627877, 9.47232812
8.70344759, 3.00000000, 4.39033028, 11.97601770, 12.40060482, 11.32033568, 4.82441706, 10.09455299
7.70227239, 3.12649964, 4.55521679, 10.61838029, 11.19709784, 9.17741794, 6.12168278, 7.91359590
6.60870638, 2.47991935, 4.70372193, 8.94007830, 12.37941840, 8.63568179, 5.68550789, 7.51831098
11.80254210, 2.94108823, 5.20576603, 8.43504594, 13.63176438, 8.65881054, 3.72491611, 8.50734976
15.14678184, 4.59619408, 4.65832588, 8.59941858, 17.12673349, 10.26766770, 5.41525623, 10.29805807
13.08911762, 4.43001129, 5.47950728, 10.76104084, 16.22189878, 13.10438858, 7.50832871, 11.71324037
14.45856148, 3.49642675, 6.30476011, 9.67470930, 10.50357082, 11.74840415, 6.89565080, 12.34402690
15.15090756, 3.54612465, 5.63693179, 10.51665346, 13.52959719, 12.69153261, 6.27096484, 11.57043647
13.80307937, 3.34290293, 4.75657440, 11.13103769, 13.75499909, 14.81553239, 6.02494813, 13.06904740
15.81534065, 3.49642675, 4.51940262, 10.35977799, 12.23825968, 13.38189075, 5.34322000, 14.17215580
15.36554587, 3.18198052, 4.46094160, 10.62544117, 12.14495780, 9.96117463, 5.44518136, 13.01441508
14.07835218, 3.21714159, 4.12310563, 7.04627561, 11.62217708, 8.47938677, 4.54972527, 11.53798076
12.00416594, 3.35782668, 4.91934955, 6.84835747, 11.56827558, 8.27194052, 5.06951674, 12.35617255
9.79795897, 2.59807621, 4.51109743, 8.48675439, 9.11866218, 7.68439978, 5.14052526, 13.15389676
11.79512611, 2.48495473, 3.38008876, 8.91207047, 9.20733403, 8.08238826, 5.47037476, 11.85748709
11.73882447, 2.91976026, 4.52216762, 8.26438140, 11.59956896, 8.17159715, 8.17771362, 10.37665649
9.97120855, 2.70185122, 4.57984716, 8.47348807, 11.55530181, 7.73304597, 7.80224327, 7.92937576
10.92931837, 2.84604989, 4.76707457, 9.72882316, 9.46968848, 11.71217315, 6.95880737, 8.24621125
12.52297888, 5.02742479, 6.80441033, 9.86407624, 16.26115002, 23.58866253, 19.38298223, 9.74679434
15.95697340, 7.51332150, 15.83508762, 11.98853619, 19.00394696, 33.22837643, 23.09924241, 15.30604456
16.83374587, 10.02870879, 27.41532418, 14.54218003, 15.46528370, 31.82451885, 18.88915032, 16.97571795
17.19520282, 11.67904106, 27.93474539, 12.91994582, 12.41772926, 25.26558925, 18.52295873, 13.73681186
17.81221491, 11.51195031, 23.42061058, 12.60952021, 13.56281682, 22.06354459, 17.79957865, 10.57236965
13.32947861, 8.90224691, 20.72317543, 11.91217864, 15.30767781, 17.83395638, 15.77973384, 10.88577053
8.93867999, 5.44058820, 12.96919427, 8.63278634, 11.82159042, 18.17622073, 15.90204389, 15.04077791
11.09504394, 4.70637865, 7.30581960, 7.84059947, 11.37321415, 20.79723539, 14.43260198, 14.21794641
12.28210080, 4.95227221, 7.14142843, 7.45150991, 14.11382301, 22.11956148, 13.60698350, 12.14701609
11.80466010, 5.06211418, 8.92188321, 8.12557690, 13.91492005, 21.16128541, 11.66619047, 12.98749398
10.73429085, 5.83309523, 8.22800097, 8.52349693, 11.20937108, 15.95619002, 6.44592895, 11.00113630
11.21494539, 5.89279221, 8.29306940, 8.74070935, 11.35011013, 14.90134222, 6.88839604, 9.94107640
11.65761554, 4.21604080, 8.64869932, 7.20069441, 11.93209956, 15.43615885, 7.87559522, 11.12879149
9.92093746, 3.89551024, 7.29725976, 6.23899030, 12.22190656, 16.53859123, 8.71492972, 10.50000000
9.65919251, 4.30697109, 7.13967786, 8.43208159, 12.40967365, 19.69200345, 8.62988992, 8.81192374
8.92188321, 3.84707681, 6.88294995, 8.68043778, 11.98749348, 17.14934401, 7.33484833, 8.48380811
10.75523129, 4.14427316, 6.06423944, 7.55645419, 12.35111331, 15.35089574, 6.55743852, 10.67590746
13.95618143, 4.86312657, 5.35256948, 7.02139587, 10.69228694, 17.73696705, 9.66953980, 12.65306287
12.01873537, 4.53321078, 6.42845238, 7.69577806, 12.72792206, 17.11651250, 10.73778376, 12.12847888
10.52615789, 4.13219070, 6.71751442, 7.74435278, 13.24292264, 15.41914395, 9.68891119, 12.09545369
13.44711865, 4.41304883, 6.63890051, 7.51332150, 10.13163363, 14.32829369, 8.22952003, 12.16860715
12.29634092, 4.90662817, 6.81175455, 8.91767907, 12.90058138, 19.89849241, 7.28525909, 10.75058138
9.11180553, 5.71620503, 7.91833316, 8.20670458, 15.47417203, 19.39652031, 6.51344763, 9.25202680
8.72782905, 5.15024271, 7.86924393, 8.83600589, 15.47255635, 15.42643834, 6.01248701, 9.76217189
7.88352713, 9.22225569, 18.58157690, 11.40504274, 12.57875193, 16.47346351, 10.10940156, 10.36219089
10.07472084, 10.57591604, 23.80283597, 14.84250653, 9.70051545, 14.67566012, 11.95930600, 10.43791167
11.83004649, 11.83427226, 37.71571291, 15.91775738, 11.29491036, 15.20032894, 15.34356543, 11.32916590
11.05101805, 11.87013058, 38.01447093, 14.77413280, 11.41709245, 17.87456293, 16.46815108, 11.77921899
9.54201237, 9.03880523, 23.05157261, 13.87894088, 10.52259474, 18.22772613, 14.68162116, 10.89151046
13.42665260, 10.82474018, 32.81196428, 14.37097770, 12.45291131, 17.60184649, 16.37299606, 13.19943181
14.14301948, 13.71404390, 43.11873143, 16.92187933, 13.14343943, 23.14573395, 15.33949152, 12.53295655
10.19558728, 15.25040983, 40.25232913, 18.02082129, 11.39956140, 22.60365015, 13.45826883, 9.25742945
10.29927182, 13.02401628, 36.73996462, 16.78392088, 12.71219887, 16.13691420, 13.26649916, 9.99124617
13.07191646, 10.26157883, 39.50727781, 16.55898548, 12.63823564, 17.42914226, 12.33794959, 9.62288938
12.57577035, 8.64002315, 33.69606802, 17.06018757, 12.67576428, 18.92617235, 11.49673867, 10.80624819
9.55117794, 8.50588032, 27.28369476, 14.97748310, 19.13504638, 16.10977964, 9.00694177, 11.65225300
11.35671607, 8.65014451, 22.42320227, 12.64515718, 19.59209024, 17.21844941, 12.09545369, 12.67872233
11.39188308, 7.39763476, 14.40225677, 10.98635517, 16.29263637, 15.84140145, 12.00937134, 11.52171862
9.09532847, 7.77174369, 17.00735135, 9.94736146, 14.84755872, 8.84024887, 6.25299928, 11.17474832
9.44589858, 6.96419414, 18.71697091, 9.94736146, 12.43483012, 9.15150261, 5.97076210, 14.63130206
12.83160161, 6.87749955, 20.57486330, 12.15730233, 16.00468681, 9.02080928, 5.00749438, 15.27334279
13.75590782, 7.07460246, 18.96773576, 12.21576850, 19.77055892, 11.10180166, 6.74166152, 12.35718415
12.17579566, 6.88658115, 17.53710352, 12.58868540, 17.94017837, 18.43908891, 9.07331252, 10.09083743
10.93274897, 7.00535509, 18.61853915, 11.94257091, 15.34682378, 18.54723699, 9.51052049, 11.29601700
13.37067687, 7.54155156, 19.33714043, 11.08377192, 18.39972826, 14.76312975, 9.37549999, 14.38228076
14.76736266, 8.36660027, 22.98151431, 13.90503506, 17.77005909, 13.71860051, 8.46758525, 14.37184748
12.77986698, 8.68043778, 21.83117038, 13.31728200, 16.18564179, 12.60158720, 6.80073525, 10.47735654
12.42074877, 8.44393273, 23.11817467, 12.27701104, 18.52498313, 14.47929556, 7.28697468, 10.99204258
12.72792206, 9.72496787, 23.88618848, 12.07580225, 16.38520674, 16.68232598, 9.63587048, 11.30486621
10.47497017, 8.68763489, 17.61178583, 10.35615759, 13.69123807, 17.88295278, 14.49137675, 10.97611042
8.52789540, 4.93203812, 9.84758854, 11.57367703, 12.52397700, 14.11116579, 13.13582887, 12.24948979
8.18382551, 7.12390342, 15.08061670, 12.74166394, 12.19836055, 8.88678795, 6.17049431, 10.47974236
7.97966165, 6.75462804, 15.48144050, 12.07269647, 11.81736011, 8.05450185, 5.91396652, 9.69407035
11.94466408, 3.82426464, 7.56306816, 10.85472247, 15.23564899, 7.78620575, 6.80991924, 11.04083330
11.78982612, 4.72757866, 9.82852990, 11.13328343, 19.05846269, 8.51469318, 6.97674709, 10.46064052
7.81504958, 5.33619715, 10.90412766, 15.25614630, 22.44827388, 8.49852928, 5.78791845, 8.75785362
12.04159458, 5.63249501, 12.72399308, 15.66604609, 21.01190139, 11.42147101, 6.06836057, 11.70042734
12.56881060, 5.63914887, 12.98653148, 12.68956264, 16.47270470, 11.35231254, 7.19374728, 11.53147866
9.65271982, 3.89871774, 8.62988992, 11.34900877, 16.30184039, 11.73030264, 7.23532999, 9.70180396
12.68167970, 3.12649964, 8.37406711, 10.88002757, 12.27191917, 14.24868415, 9.12140340, 12.68857754
12.58371964, 4.01559460, 8.63712915, 10.68176015, 11.30265456, 12.14701609, 8.68043778, 12.54491929
10.43072385, 3.86652299, 6.62193325, 10.87083253, 13.77588473, 9.17196816, 6.11964051, 10.50238068
9.85520167, 3.80788655, 6.10122938, 9.62418828, 16.75559608, 9.25067565, 5.84380013, 8.69913789
8.98470923, 4.93203812, 8.14555093, 12.69940944, 19.05387100, 11.15795680, 5.03487835, 8.98888202
9.07331252, 5.76194412, 9.03880523, 14.11116579, 16.96172161, 9.96744702, 4.65832588, 10.29563014
9.21683243, 5.39444158, 7.09048658, 9.68245837, 12.47697880, 11.00908716, 6.16035713, 9.94107640
9.37416663, 4.82700735, 8.95823643, 9.87674035, 12.30447073, 12.00624837, 6.24299608, 10.63367293
10.24207010, 4.13823634, 9.78135982, 10.56409012, 16.35771989, 10.74011173, 5.80732296, 11.97601770
10.27618606, 4.34741302, 8.65592283, 9.70566845, 16.77423620, 11.90483095, 6.61815684, 10.28105053
13.01825641, 5.55427763, 9.46308618, 9.97371546, 13.90323703, 9.90959131, 6.23498196, 8.53961357
13.15199605, 5.40370243, 8.68907360, 8.65881054, 12.27904719, 10.64776972, 6.76756973, 11.80571895
14.21179088, 5.03736042, 8.76641318, 7.41788380, 11.92476415, 13.38282481, 7.13442359, 14.51981405
15.10629008, 5.53398591, 9.88685997, 7.89461842, 14.77159436, 14.73346531, 8.31715095, 13.48332303
11.24055159, 6.47302093, 12.45792920, 8.64580823, 17.18065773, 15.42643834, 8.03896760, 10.88347371
13.70857396, 6.83373983, 15.39967532, 10.65481112, 16.17482612, 14.28810694, 7.75725467, 13.90773166
14.87783586, 8.83742044, 25.47106201, 12.24744871, 15.16822336, 20.09975124, 10.75987918, 16.40731544
11.62325256, 10.97155413, 35.87338847, 12.74460670, 15.65007987, 22.88613117, 15.38668255, 14.32305833
10.48332008, 10.11681768, 31.98593441, 11.61034022, 16.72572868, 19.94805755, 16.24038177, 12.73872050
13.05181980, 8.86566410, 23.07921143, 11.16467644, 18.11422093, 16.72498132, 12.00728945, 11.87644728
14.24429710, 7.98435971, 19.05452702, 12.36931688, 20.45299489, 16.19413474, 11.22497216, 12.05197079
11.49347641, 7.00535509, 14.25745419, 10.88691876, 19.63670033, 16.99411663, 12.05300792, 12.50499900
13.23914650, 7.35696948, 17.51427989, 11.81418639, 18.94663559, 20.16866381, 17.51285242, 12.67675037
17.05139290, 7.56472075, 18.16521401, 12.69547163, 17.56274466, 19.87334899, 20.29531966, 14.04991103
19.20416621, 6.90289794, 17.89832394, 10.89265808, 14.95576812, 17.79395965, 16.94107435, 13.11201739
18.38885532, 5.49090157, 14.86354601, 11.23943949, 14.63642716, 16.27728479, 13.77679208, 12.96148140
14.09609875, 5.71182983, 9.51971638, 11.50543350, 12.89961240, 16.59518002, 10.68410034, 13.18142633
13.72497723, 5.50681396, 9.21954446, 9.94359090, 13.46940979, 17.71510655, 11.35561535, 11.53798076
15.54107461, 6.27694193, 11.40394669, 11.03856875, 14.75720163, 14.04813155, 12.06441047, 11.18704608
19.72181533, 7.01070610, 13.87713947, 10.76220238, 15.28561415, 15.43534904, 9.46440701, 12.24132346
20.34023107, 6.33837519, 14.07124728, 12.08718329, 14.96495907, 18.26882591, 9.65401471, 11.91742422
16.49469612, 6.57267069, 17.56345638, 13.94274005, 14.42393844, 24.60132110, 19.76423538, 11.30818288
15.44101681, 10.46064052, 23.48031090, 14.78005413, 11.59094474, 27.12010324, 28.98404734, 13.63726512
14.49913791, 11.56070932, 26.06530261, 14.62702977, 13.08338641, 32.53190741, 25.42439773, 14.31782106
14.15980226, 8.59505672, 21.91745879, 11.32695899, 14.43952908, 30.44010512, 15.53946589, 12.19631092
13.40708768, 8.31264098, 19.57102450, 10.14396372, 13.28909327, 21.45518585, 15.30604456, 11.77921899
14.52497849, 7.73304597, 22.09581408, 10.62073444, 16.14001239, 20.71352215, 18.59032006, 12.92188067
14.40052082, 5.69209979, 18.81887351, 10.04116527, 17.58408371, 18.24075108, 17.59900565, 10.56882207
12.61447581, 6.93541635, 16.58990657, 9.24391692, 16.10201851, 16.18023486, 13.09293703, 10.07844234
14.04546190, 6.82825014, 17.21481920, 10.73778376, 13.69762753, 13.71768931, 10.21763182, 10.26401481
15.37449186, 4.37607130, 12.52098239, 12.03536456, 13.86452307, 19.05452702, 8.09320703, 9.59947915
14.75127113, 4.29825546, 8.69770085, 11.29048272, 14.35792464, 20.28238152, 9.30725523, 16.63805878
12.82283120, 5.26545345, 11.28494572, 10.13656747, 14.37097770, 16.35160543, 8.55423872, 17.89622865
11.70042734, 5.27257053, 11.51954860, 10.02995513, 17.18065773, 15.69315137, 8.11634154, 12.25561096
10.96357606, 4.71699057, 9.51708989, 9.52890340, 18.36028322, 15.27743434, 7.94040301, 10.23108010
10.49523701, 4.83218377, 8.88115983, 8.95544527, 16.79136683, 17.21554530, 7.92622230, 10.50714043
12.44588285, 5.49090157, 8.89381808, 8.65303415, 13.91581834, 15.80664417, 7.35187051, 10.72846681
14.95409643, 5.17204022, 8.73927915, 7.82304289, 11.68225150, 11.28605334, 9.39547764, 9.85646996
14.29947551, 4.61789996, 8.07929452, 9.33809402, 11.43022309, 12.85982115, 11.19821414, 10.03867521
13.46291202, 4.45533388, 8.09011743, 10.01374056, 12.94700738, 14.70204067, 12.22599689, 11.38749314
14.35357098, 4.53872229, 11.04649266, 9.28304907, 14.28898177, 15.02664301, 11.91217864, 13.08816259
14.50775655, 5.81592641, 12.69645620, 10.06106356, 12.93928128, 12.78475655, 8.89803349, 13.46940979
12.74558747, 5.60133913, 10.54277003, 10.29441596, 12.33490981, 13.11868896, 8.63133825, 10.69579357
11.62002582, 4.28077096, 9.88812419, 9.70953140, 13.86812893, 15.45962483, 7.63708059, 9.63587048
12.43885043, 4.89897949, 12.80234354, 11.80783638, 15.82798155, 17.45923824, 12.31564046, 9.36616250
10.95901455, 4.65564174, 11.91217864, 11.53798076, 14.86859106, 20.95232684, 13.74590848, 9.12140340
9.36349294, 3.87943295, 9.10357073, 9.80051019, 12.38749369, 17.69675111, 9.84504952, 10.63014581
9.30053762, 5.15509457, 13.73226129, 10.53090689, 12.79746069, 12.91704301, 7.88194139, 10.66067540
13.14534138, 5.43369119, 14.39618005, 9.79668311, 13.67296603, 15.00666519, 5.78359750, 11.34129622
13.43688952, 4.66368953, 11.53256259, 8.43504594, 14.03032430, 13.80489044, 5.24642736, 13.37348122
13.58951802, 4.74078053, 11.09617051, 10.04241007, 12.85884909, 16.80252957, 4.85025773, 14.61420542
16.11133142, 4.81663783, 10.90642013, 11.35891720, 11.97601770, 17.54494229, 5.17687164, 14.13771552
13.83564238, 5.23688839, 10.96585610, 10.11187421, 11.91427715, 11.98123533, 5.39675829, 12.34706443
14.15185500, 5.69649015, 9.83234458, 8.61684397, 13.77769937, 12.16244219, 6.32257859, 11.21383075
14.25920755, 5.19133894, 11.03970108, 7.72172261, 14.56880228, 17.78623063, 6.95341643, 9.42867965
13.29567599, 7.34846923, 18.23252588, 8.87130205, 12.08408044, 18.03330253, 8.32015625, 9.10906142
11.98123533, 10.76684726, 27.69882669, 11.90168055, 11.83532847, 17.64794606, 10.41753330, 9.00971698
11.32475165, 9.53546014, 24.30123454, 11.68866973, 13.03744607, 16.71077497, 8.89241250, 10.73778376
11.52605744, 6.84835747, 19.97748733, 10.64894361, 11.85432411, 17.94505503, 10.52734534, 11.53039462
8.99166281, 8.64580823, 24.04838872, 11.74840415, 12.73381325, 17.82343962, 11.09729697, 11.71110584
10.01873245, 8.22800097, 24.36647287, 13.04032208, 12.81503024, 17.44133022, 11.61895004, 14.33614314
13.12154716, 5.78575838, 21.24676446, 11.47170432, 11.80360115, 18.95652922, 11.38200334, 13.75045454
12.69645620, 4.50000000, 14.77328670, 8.08393469, 15.81217885, 17.97359174, 6.27096484, 10.35977799
13.13392554, 4.31277173, 12.37335848, 7.63544367, 14.84924240, 17.90041899, 11.68011130, 14.50344787
14.50258598, 5.79655070, 13.53513945, 9.22903028, 12.56582667, 15.70031847, 11.51846344, 16.70029940
12.29939023, 6.48459713, 14.46201922, 11.15347479, 15.23400801, 15.44425460, 6.21691242, 14.18009168
11.37101579, 5.39444158, 10.69813068, 9.43398113, 15.25614630, 16.19645023, 7.23360215, 12.14289916
14.11647973, 4.84510062, 8.32766474, 7.66811581, 13.16814338, 15.91854265, 9.13783344, 11.94780315
14.51550895, 5.25119034, 11.72923697, 10.17103731, 14.91978552, 19.00592013, 8.37854403, 11.64581470
11.72497335, 6.21288983, 12.56682140, 11.12205017, 16.89304591, 21.05825254, 6.67832314, 11.34350034
11.32695899, 7.39763476, 19.66087485, 10.63249735, 14.14832146, 20.33961652, 10.59716943, 12.08408044
14.20563269, 8.38003580, 21.80768213, 12.04367054, 16.06393476, 18.45873777, 12.67970820, 13.89874095
15.20526225, 7.56637298, 16.34319430, 13.33604139, 15.56277610, 15.92874760, 10.45107650, 14.48620033
13.62717872, 6.44398945, 14.26797112, 12.21269831, 10.66653646, 14.63642716, 7.28868987, 11.54556192
10.87428159, 5.99791630, 11.68011130, 9.65660396, 12.76028997, 15.03163331, 6.52878243, 11.66619047
10.00999500, 4.43283205, 10.18577439, 9.58514476, 14.84755872, 15.10711753, 5.87579782, 11.53473017
12.49099676, 4.34741302, 9.94987437, 12.01561484, 17.55704987, 15.30931089, 5.99583189, 11.95721539
11.64259421, 5.09901951, 9.50526170, 13.18047799, 16.48863245, 18.70962319, 5.57897840, 12.08201142
11.50217371, 6.19273768, 10.82704946, 11.04196540, 14.81131324, 20.30763403, 7.07283536, 11.60710989
11.91007976, 5.90762220, 11.07023035, 8.22648163, 14.43952908, 16.93369422, 7.67463354, 13.39309524
9.71210585, 4.93963561, 9.70438045, 8.36361166, 15.68438714, 12.39858863, 6.35609943, 12.46194206
10.84435337, 5.92241505, 10.40792967, 8.68331734, 15.66365219, 16.69580786, 6.19475585, 12.04989627
11.01022252, 5.89279221, 8.70919055, 8.41130192, 13.37441588, 19.85006297, 11.39407741, 13.22686660
8.83317610, 4.64219776, 6.99106573, 9.43398113, 18.18928256, 18.35279270, 12.07787233, 11.29491036
8.35164654, 5.01248441, 8.56592085, 10.30412539, 18.27840256, 15.99218559, 9.38083152, 8.71636392
8.42763312, 4.93203812, 7.73789377, 9.22632104, 14.35270009, 17.87176544, 10.18700152, 8.30963296
8.97357231, 3.47131099, 5.80947502, 9.86661036, 16.31640279, 18.36436767, 14.29160593, 9.83869910
10.65129100, 3.53906767, 6.36199654, 10.46183540, 14.98749479, 18.05131574, 13.99374860, 11.12317401
10.36942621, 3.87943295, 7.83900504, 11.85432411, 11.89117320, 19.38104744, 11.74627601, 11.00340856
8.42466617, 4.06816912, 9.54463200, 12.06751839, 13.01153335, 18.42688254, 11.23053872, 9.65660396
9.39015442, 4.28660705, 8.93168517, 10.77381084, 11.80148296, 15.74087037, 8.43059903, 9.75832978
11.89012195, 4.62871472, 8.66890997, 10.97611042, 14.43952908, 16.60572191, 8.78066057, 11.17027305
10.62779375, 4.63680925, 8.42318230, 9.85266461, 14.45164351, 18.28250530, 8.55569985, 10.82589488
7.58617163, 4.39033028, 5.60357029, 9.35414347, 10.66302021, 15.64209065, 7.31949452, 11.08828210
9.53677094, 3.55316760, 3.45325933, 10.74243920, 14.21530865, 15.52659010, 6.75462804, 12.04989627
11.16467644, 2.81069386, 3.51069794, 10.74360275, 18.19546647, 22.26488266, 7.95455844, 10.52259474
9.68374927, 3.18590646, 3.79143772, 8.83742044, 16.99485216, 19.93301282, 7.23705741, 10.58418632
8.38898087, 3.69120577, 5.05222723, 8.69770085, 13.32666500, 14.09875881, 7.70227239, 10.77032961
8.84307639, 3.90192260, 5.26545345, 9.08432716, 13.35571039, 16.26576159, 8.41427359, 12.41068088
9.29381515, 3.93382765, 4.01248053, 10.16980826, 14.90050335, 14.35008711, 6.93541635, 17.93878480
9.48419738, 3.87943295, 3.96547601, 11.22274476, 13.37161172, 11.39956140, 8.41724420, 16.73917561
8.51028789, 3.66401419, 4.30697109, 9.99624930, 10.50357082, 8.81050509, 8.52642950, 10.97383251
7.61905506, 3.38008876, 3.42417873, 7.99687439, 11.24833321, 9.34745955, 4.93963561, 10.86162971
8.78635305, 3.44963766, 3.48568501, 10.39471019, 12.21269831, 13.82660479, 5.40138871, 10.94874422
9.28708781, 3.47131099, 3.93382765, 11.63615057, 12.20757961, 13.72861974, 5.36190265, 11.86486410
7.43807771, 2.95381110, 3.28633535, 9.08570305, 12.69940944, 9.36082261, 2.70185122, 11.56070932
6.76017751, 3.19374388, 3.34664011, 8.07310349, 13.25518766, 9.02635031, 3.63661931, 10.37304198
8.00468613, 3.80460248, 4.98246927, 10.91329464, 15.12530991, 10.56409012, 4.54147553, 11.75265927
7.67137537, 3.42417873, 4.97242396, 10.12546295, 14.52153573, 10.60306559, 4.01870626, 11.61572210
7.08166647, 3.82099463, 3.84707681, 6.86840593, 13.06617771, 9.73396117, 3.26726185, 11.33468129
8.95823643, 3.99374511, 4.30987239, 10.09579120, 12.84523258, 10.13286731, 3.68781778, 10.07099796
9.17196816, 3.22490310, 4.46094160, 10.19190856, 12.46294508, 8.63423419, 4.81663783, 8.67899764
7.95927132, 3.41686991, 4.29825546, 7.41114026, 12.70629765, 6.98748882, 4.50555213, 8.76070773
11.74627601, 3.75832409, 3.66060104, 6.89202438, 10.82589488, 8.97914250, 5.16478460, 9.02358022
12.53295655, 3.31285375, 3.20936131, 7.18157364, 10.73196161, 11.32585538, 5.02244960, 10.53446724
10.03742995, 2.47487373, 3.47850543, 7.76208735, 11.83955236, 11.67582973, 4.84767986, 13.30413470
10.38749248, 2.74317334, 3.92746738, 7.11688134, 11.81947545, 10.39951922, 4.70637865, 11.56719499
8.82751381, 3.13448560, 4.18628714, 6.45755372, 14.73855488, 8.86002257, 3.38747694, 8.83317610
7.53823587, 3.50356961, 4.12310563, 7.25947657, 16.87083282, 9.36749700, 3.63318042, 9.58514476
8.49117189, 3.77491722, 4.13219070, 8.78635305, 17.00661636, 8.79772698, 3.78483817, 8.72496418
11.21717433, 3.77160443, 4.71433983, 9.41142922, 14.86270500, 8.44245225, 4.53596737, 10.75987918
11.91112925, 3.34290293, 4.06816912, 9.40345681, 13.24103470, 10.43312034, 4.16533312, 11.72710535
10.91673028, 3.41320963, 2.91547595, 9.55510335, 14.74194695, 10.46780779, 4.87852437, 13.47126572
10.65129100, 3.59165700, 4.09878031, 9.29516003, 13.60882067, 8.22648163, 5.27494076, 16.18718629
8.77781294, 2.78388218, 4.09267639, 9.67341718, 11.85854123, 8.11171992, 5.82022336, 13.62350909
9.52102936, 2.65518361, 4.31277173, 11.49565135, 15.68199605, 9.43265604, 5.70087713, 9.54725091
11.66511894, 2.85919569, 4.68508271, 13.13107002, 15.62369995, 10.60188662, 4.01248053, 10.99431671
11.02156976, 3.00832179, 4.60705980, 12.50999600, 15.61889881, 11.67904106, 4.15030119, 14.21091130
9.76729236, 3.35782668, 4.66636904, 12.05819224, 15.61169433, 10.52378259, 4.89897949, 14.95660389
9.11317727, 3.07408523, 3.80788655, 11.56287162, 11.62970335, 8.26438140, 5.17204022, 13.14058598
7.53491871, 2.87228132, 3.76497012, 9.28304907, 12.57875193, 9.84377976, 4.52493094, 11.78134118
9.49078500, 3.72155881, 4.13823634, 8.20670458, 16.01093376, 14.27848031, 3.61247837, 11.85959527
10.61720302, 3.82099463, 4.93963561, 9.25472852, 14.91978552, 12.75049019, 4.49165894, 10.52497031
9.15559938, 3.04138127, 4.97995984, 8.57612966, 14.73346531, 7.98905501, 5.05717312, 12.85982115
9.46308618, 3.05777697, 4.17133072, 7.61577311, 17.04332714, 9.59947915, 4.57984716, 14.04635184
11.44989083, 3.36154726, 4.89387372, 9.22361101, 17.07263893, 11.38200334, 5.11859356, 13.79220795
14.56451166, 5.24880939, 10.19803903, 9.56294934, 15.74880948, 12.35111331, 5.49772680, 16.14465856
15.40697894, 5.54977477, 12.33085561, 9.29381515, 13.09293703, 11.98123533, 5.16720427, 16.48180815
11.89222435, 3.95284708, 9.10219754, 9.11180553, 14.28285686, 10.64424727, 5.90338886, 14.18273598
11.41052146, 3.48926926, 5.52946652, 11.22274476, 15.85953972, 8.72926114, 5.27730992, 10.98863049
12.55089638, 3.69797242, 5.90973773, 10.95787388, 16.01327574, 7.43135250, 4.04660351, 12.45792920
11.17027305, 3.74833296, 6.40507611, 8.77211491, 15.27252435, 10.29563014, 4.68774999, 13.17099085
10.93274897, 3.31285375, 6.38161422, 9.36616250, 13.12345229, 10.79351657, 5.19855749, 12.37234820
13.43316791, 3.87943295, 6.92098259, 9.08570305, 14.36053620, 11.52822623, 5.61025846, 13.42479050
13.46012630, 4.22492603, 7.17809167, 9.11454881, 15.09055996, 12.10165278, 5.12347538, 14.07835218
12.08821740, 3.70809924, 7.71038261, 8.19451036, 12.74558747, 10.76336379, 5.09901951, 13.94363654
12.84425942, 3.23264598, 7.89461842, 6.86658576, 15.47497981, 10.34166331, 5.08920426, 14.41266804
10.88117641, 2.80178515, 6.90651866, 7.39594483, 15.09966887, 9.25607908, 4.86569625, 12.51798706
10.18700152, 3.14245127, 6.90108687, 8.68907360, 10.67005155, 9.41939489, 4.62601340, 11.12542134
9.46704811, 3.59165700, 8.37705199, 9.88053642, 12.78768939, 9.94987437, 4.58802790, 12.18195387
12.15524578, 3.80788655, 8.45872331, 11.96975355, 14.41093335, 10.70630655, 4.90153037, 11.34129622
14.16950952, 3.29013678, 6.48845128, 11.40175425, 14.37184748, 11.37870819, 5.05717312, 10.41153207
11.03743630, 3.20156212, 6.33245608, 7.75403121, 12.81698092, 12.56881060, 4.80104155, 10.08835963
10.50119041, 3.36526373, 6.69701426, 11.26277053, 13.96603022, 14.08190328, 4.45813863, 9.97997996
10.40913061, 3.01247407, 6.18061486, 14.26709501, 16.47649841, 13.62259153, 4.31277173, 9.42072184
8.39047079, 3.04959014, 7.46324326, 11.52822623, 16.24653809, 11.51954860, 3.84057287, 9.28977933
10.51070882, 3.04548847, 6.94262198, 9.33809402, 15.26925015, 10.02496883, 4.58530261, 11.17922180
12.26988183, 3.30907842, 6.03324125, 11.67261753, 13.07096018, 9.90959131, 5.42908832, 12.68069399
12.87050893, 3.43511281, 5.69649015, 11.61356965, 12.66589910, 10.44748774, 4.95731782, 12.54591567
11.78240213, 3.38008876, 6.46142399, 9.74807673, 13.30225545, 9.30725523, 4.22788363, 11.15123312
9.57601170, 3.35782668, 6.26099034, 10.02746229, 15.86899493, 11.90903019, 5.47265932, 11.42365966
9.56556323, 3.08220700, 4.63411264, 12.86468033, 16.61099034, 13.12249976, 5.59016994, 10.87658034
10.48570455, 3.16227766, 5.61916364, 12.94217911, 15.20197356, 11.38749314, 3.84057287, 8.04363102
10.16612020, 3.33541602, 6.87749955, 11.36661779, 13.25235828, 12.34605200, 3.44963766, 7.18157364
9.69278082, 3.30907842, 6.21288983, 12.17579566, 13.92659327, 12.10578374, 4.66904701, 9.40478602
9.86407624, 3.28252951, 6.14206806, 11.17362967, 14.96161756, 10.41753330, 5.23211238, 9.38349615
8.00156235, 2.87662997, 5.91607978, 9.42072184, 16.73992234, 11.21828864, 4.94974747, 6.45174395
7.19722169, 2.52487623, 4.67439836, 9.56164212, 17.34430742, 12.16038651, 4.78800585, 9.65012953
7.90569415, 2.61247010, 6.74536878, 9.96995486, 15.35089574, 10.52615789, 3.87298335, 12.91317157
7.30068490, 2.63628527, 7.75886590, 10.41873313, 15.32889428, 9.41806774, 5.35490429, 12.68167970
6.92098259, 2.13892496, 6.30277717, 9.66695402, 13.29943608, 9.48551527, 5.98539890, 12.03120942
7.61905506, 2.34520788, 5.50681396, 9.20190198, 13.37254650, 9.32469839, 4.86312657, 12.67675037
8.94986033, 2.94533530, 6.63701740, 9.50263121, 12.12126231, 8.73784871, 4.42153819, 11.64474130
12.95955246, 2.98747385, 6.62570751, 9.05262393, 10.21028893, 8.37555968, 4.17432629, 15.46285873
13.51573157, 7.45989276, 14.39704831, 9.37949892, 10.83858847, 9.13509715, 5.12835256, 16.16632302
12.72399308, 7.80864905, 15.83035060, 9.25472852, 11.62647840, 8.97914250, 4.83993802, 14.38401891
12.94507628, 4.18927201, 9.94987437, 7.97339326, 14.84166433, 15.92325344, 16.18177988, 14.69778895
12.30548658, 4.88876262, 11.48259553, 9.32603882, 15.95227257, 28.79887151, 19.73068676, 12.21781486
12.33794959, 5.30094331, 12.61843889, 10.41393297, 12.76518703, 31.51309252, 17.05432496, 10.84550598
12.26172908, 5.43139025, 10.65011737, 10.97269338, 16.28189178, 27.04163457, 14.73855488, 11.95407880
11.59849128, 5.91819229, 11.28162222, 12.36122971, 21.00595154, 23.43021553, 10.62896985, 14.59109317
9.56425637, 5.48634669, 10.97611042, 14.17832853, 21.29495245, 20.04931420, 9.62938212, 14.28723206
11.91952180, 5.83952053, 9.81453004, 15.01082942, 17.67413364, 19.52050204, 10.02995513, 12.79746069
23.07975303, 6.22695752, 10.46541925, 12.90348790, 13.79402044, 17.93808797, 10.04116527, 13.04511403
23.18889821, 6.24299608, 10.49880946, 11.14899099, 14.32218559, 19.14288380, 9.34077085, 15.28397854
14.82818263, 7.13967786, 14.01249442, 13.36693682, 17.07776332, 28.95125213, 17.42053386, 16.38902072
16.58387771, 9.15969432, 21.58819122, 17.02718415, 28.85047660, 34.31144124, 19.62778643, 20.10907755
19.28146779, 11.98123533, 22.84622507, 16.52876281, 36.33524460, 32.43994451, 14.70884088, 20.82366442
15.81375983, 11.68653071, 18.03330253, 12.32477180, 31.68517003, 28.83010579, 12.05922883, 18.75966418
17.43272784, 8.92748565, 14.39444337, 10.79004171, 22.23285857, 27.00648070, 10.99772704, 17.53781628
18.92485139, 7.26808090, 12.38850273, 12.76322843, 23.20937311, 24.11431110, 11.23387734, 14.65349788
14.69183447, 7.01248886, 11.60387866, 12.33592315, 22.75961335, 21.40443879, 10.01124368, 14.57909462
21.68928307, 6.44204936, 10.12669739, 9.57209486, 19.44672209, 23.90397456, 14.38141161, 16.79806536
25.82827908, 5.70306935, 9.98749218, 10.77149015, 18.35960239, 32.39945987, 18.94399641, 18.84675038
22.31703385, 21.02974084, 41.15489035, 25.30908928, 18.29685765, 35.15856937, 18.62860703, 16.69356163
19.42549871, 22.83254257, 57.07407467, 27.44494489, 28.85870752, 36.56022429, 16.20108021, 14.54819576
18.20302173, 14.25306984, 48.37147920, 17.68827295, 29.11400007, 35.80293284, 17.31617741, 14.59537598
13.61065759, 13.89334373, 39.85724526, 19.02695456, 20.87103256, 33.32529070, 19.16246331, 19.51601906
13.57571361, 18.61652492, 42.94182111, 24.97448698, 22.52609598, 30.38996545, 15.61569723, 21.21673867
15.92011306, 18.14662503, 42.33585950, 22.69195893, 21.04162541, 21.74683885, 12.84231288, 17.17629180
19.31514949, 15.03745324, 45.30066225, 18.89576672, 19.71674415, 20.43220497, 13.58951802, 19.62842327
17.99930554, 14.56536989, 41.35516896, 20.14944168, 27.81096906, 20.37584354, 13.09007257, 19.05518302
12.26580613, 9.20869155, 25.12220134, 14.70629117, 25.69922178, 18.37321420, 14.98999666, 13.48888431
12.37234820, 6.48074070, 14.81131324, 9.14740400, 19.74588565, 13.75136357, 17.02938637, 11.75478626
10.82589488, 5.01248441, 9.93856126, 8.72353140, 21.24558778, 14.88539553, 14.66202578, 10.11311030
9.87927123, 5.75108685, 7.01961537, 8.68907360, 20.30763403, 21.32897091, 23.81386151, 12.39858863
11.91742422, 6.01456565, 5.70087713, 8.62119481, 18.66279722, 25.54016445, 25.06790777, 12.42678559
11.33137238, 4.96487663, 4.78278162, 7.34336435, 20.14261651, 26.12852847, 20.87342808, 9.91967741
7.30753036, 5.04975247, 7.65996084, 8.15168694, 24.02966916, 24.00833189, 23.71022986, 9.98248466
7.92464510, 6.04565960, 11.13552873, 8.10709566, 20.28792744, 29.47541348, 19.53394481, 9.39148551
9.00694177, 6.28689112, 10.89954127, 7.99531113, 14.36923798, 29.19589012, 19.22368331, 9.97872737
8.58195782, 5.56551884, 10.88577053, 9.45647926, 15.55795616, 22.84130031, 21.81799716, 9.59035974
11.83849653, 6.34034699, 14.54991409, 11.98332174, 16.30337388, 21.72038213, 19.06829830, 8.06535802
11.44115379, 6.32257859, 13.89064433, 11.65761554, 16.39283380, 21.19787725, 18.45399686, 7.56637298
9.43133077, 4.48330235, 9.26687650, 8.30511890, 19.14484265, 20.25956564, 16.85674939, 11.39188308
9.94610477, 3.71819849, 6.24299608, 8.54839166, 17.96802716, 15.84455743, 12.51499101, 13.13011805
8.71062570, 3.18982758, 5.47950728, 9.70309229, 13.60514609, 16.42482877, 11.25388822, 10.89036271
8.11788150, 4.82700735, 7.61577311, 9.10631649, 16.38978340, 16.33707440, 9.84504952, 9.90959131
8.81759604, 5.56102509, 7.65016340, 8.71636392, 16.34625339, 11.52388823, 8.01716908, 14.29597846
9.63197799, 5.10636857, 7.74919351, 10.25792377, 14.15538767, 11.34019400, 4.69308001, 13.92390032
8.59651092, 4.28077096, 8.31414457, 9.63457316, 17.83605898, 12.88700896, 4.92696661, 12.58371964
6.72867000, 3.46770818, 6.85018248, 6.61437828, 19.38814071, 10.36822068, 6.56315473, 12.87342223
6.18061486, 4.15632049, 4.21307489, 7.13792687, 17.51071101, 11.31370850, 10.54039847, 10.91443998
6.04772685, 3.50713558, 2.72029410, 7.67951821, 16.35389862, 11.53473017, 10.53328059, 11.10180166
6.70074623, 3.12649964, 3.60901649, 10.61602562, 16.78243129, 12.85301521, 10.05360632, 10.36460322
10.15135459, 3.61939221, 4.53596737, 11.09166354, 19.22303306, 18.84277050, 11.46625484, 10.76916896
10.07596149, 4.11703777, 6.29285309, 8.13480178, 18.69692488, 18.71563517, 10.46422477, 13.80851187
10.08092258, 4.87596144, 9.24256458, 9.03880523, 20.71533249, 15.37693077, 10.00374930, 12.64120247
10.92245394, 5.24642736, 10.46541925, 9.27900857, 21.60497628, 13.68210510, 8.32616358, 9.22361101
8.48380811, 5.22494019, 10.71564277, 8.64436232, 18.20096151, 9.77624672, 5.50908341, 9.91715685
8.40386816, 4.30116263, 9.54986911, 8.71779789, 23.94890394, 9.29112480, 4.69308001, 9.75832978
8.32316046, 3.15039680, 6.27495020, 8.43800924, 23.89142105, 10.80393447, 9.03050386, 10.78772451
7.52994024, 3.32415403, 4.10182886, 9.19374788, 23.68543856, 22.08506283, 18.42484735, 11.73030264
9.69922677, 11.62755348, 7.38071812, 10.76684726, 26.41306495, 25.89884167, 20.82426469, 14.31694800
10.11434625, 12.64614566, 8.30361367, 9.77113095, 20.85125895, 18.89312044, 15.39074397, 14.90721302
10.04987562, 7.02495552, 7.57132749, 7.59111323, 18.40652058, 22.01703886, 15.41671171, 10.98749289
9.84631911, 7.60263112, 8.09475139, 7.43975806, 17.65502761, 22.12012658, 13.86542462, 8.30210817
8.28100235, 7.54817859, 6.28887907, 6.68206555, 14.62275624, 15.46932448, 9.41408519, 9.19102823
6.80624713, 4.70637865, 3.79802580, 5.50000000, 15.70270677, 12.21883792, 9.50526170, 9.46704811
6.68393597, 2.83284309, 2.80178515, 5.33151011, 16.05537293, 13.17288883, 8.04207685, 8.95265324
9.20190198, 3.80460248, 3.96232255, 8.14708537, 17.04626059, 14.91894768, 7.51498503, 10.39110196
9.46044396, 4.65832588, 5.54075807, 10.23596600, 21.82315284, 12.97015806, 7.78138805, 12.24336555
8.08238826, 4.24558594, 5.85448546, 9.40345681, 20.65792826, 15.28970242, 7.77174369, 11.22274476
7.29040465, 3.22490310, 4.64488966, 8.40238062, 19.08467972, 15.77973384, 7.16937933, 8.83459111
9.63587048, 2.47991935, 4.69840398, 8.78350727, 18.83281710, 13.91671657, 7.90727513, 10.13533423
9.91715685, 3.91152144, 5.22972275, 8.93588272, 16.70478973, 12.85787696, 8.42021377, 11.10180166
9.11317727, 4.20713679, 4.15331193, 8.64002315, 15.87923172, 13.49722194, 8.92748565, 10.62661752
8.77353976, 3.71483512, 4.62601340, 7.97809501, 22.06807649, 16.94402550, 10.15012315, 10.78656572
6.23297682, 3.62973828, 6.12576526, 7.72819513, 22.85278976, 16.14388429, 9.89949494, 10.55461984
5.45435606, 3.41686991, 6.16441400, 7.88669766, 15.34519469, 11.79088631, 9.53152664, 9.06504275
6.18263698, 3.77822710, 6.45755372, 8.43059903, 18.82020191, 14.06591625, 11.55638352, 9.23038461
7.10985232, 3.50713558, 6.54025993, 9.42072184, 17.47140521, 13.20795215, 9.93101203, 9.83869910
6.78785680, 3.03726851, 5.44977064, 9.30859818, 16.63881005, 13.09102746, 6.94802130, 8.32015625
7.02317592, 3.47131099, 4.09267639, 8.34865259, 17.95271567, 17.05065981, 7.83421981, 7.76530746
7.91675439, 3.48926926, 3.08625987, 7.66648551, 18.10869957, 16.16941557, 8.19451036, 8.08084154
8.18993284, 3.72155881, 3.97492138, 7.57132749, 19.45314885, 12.57179383, 7.27495704, 10.23596600
6.53452370, 4.34165867, 5.29386437, 8.96242155, 15.92482339, 8.79772698, 6.55171733, 10.89839438
6.05598877, 3.88908730, 5.42908832, 9.49868412, 18.23800976, 7.37563557, 7.94669743, 9.27361850
8.57029754, 3.02076149, 4.00624512, 8.58487041, 19.77877650, 15.24467120, 9.19646671, 10.86162971
8.20060973, 3.11849323, 3.83079626, 9.92597602, 15.61969910, 15.69554077, 8.84872872, 11.57691669
6.23698645, 2.94108823, 4.21010689, 10.07348003, 16.55747565, 14.18890412, 7.20416546, 10.71330948
6.69701426, 2.62678511, 4.21010689, 8.01405016, 15.63649577, 14.92313640, 8.26135582, 9.92597602
6.67457864, 3.02489669, 4.60434577, 8.02963262, 14.16598038, 10.56172334, 9.03050386, 8.24924239
6.23698645, 2.93683503, 4.66368953, 7.36885337, 17.04186023, 9.49473538, 9.41275730, 8.44985207
7.68439978, 2.76134025, 4.28952212, 5.78791845, 17.59474353, 12.24744871, 9.43398113, 8.77068982
7.17983287, 2.48997992, 3.70809924, 7.40607858, 14.12444689, 11.78240213, 6.90651866, 8.23103882
5.48634669, 2.50998008, 4.39317653, 8.57467201, 11.96766477, 7.91833316, 7.85970737, 10.02372186
6.45948914, 2.88530761, 4.72493386, 9.48683298, 16.97056275, 11.56827558, 9.19102823, 9.45119040
5.77061522, 2.61247010, 3.39852909, 8.97496518, 16.50833123, 12.58272625, 7.83741029, 6.54790043
5.10392006, 2.26936114, 2.60288302, 6.53834842, 12.67576428, 12.71613149, 7.06929982, 6.09097693
6.23097103, 3.35037311, 5.08428953, 6.56124988, 10.97611042, 13.26838347, 6.46722506, 8.10863737
6.65394620, 3.97492138, 6.08892437, 8.50441062, 15.09138827, 15.71782428, 8.20365772, 9.81962321
7.49499833, 3.54259792, 5.09656747, 9.75704873, 16.36765102, 16.42178431, 9.51183473, 7.65179717
7.46826620, 3.24037035, 4.00312378, 9.04986188, 15.17316711, 12.55886141, 7.32290926, 6.55934448
7.34166194, 2.72946881, 3.09838668, 7.87718224, 14.03923075, 13.50277749, 8.18535277, 8.84024887
8.20975030, 2.63628527, 3.57770876, 8.85014124, 11.43896848, 13.57387196, 9.13236005, 9.79540709
6.93541635, 2.66926956, 3.52491135, 9.09395404, 12.37335848, 10.20416582, 7.07106781, 10.02870879
5.51361950, 2.36114379, 3.71483512, 8.50294067, 11.79300640, 9.48287931, 5.07937004, 9.63716763
5.92663480, 2.42899156, 3.96862697, 8.04363102, 12.93831519, 11.05780268, 5.62138773, 9.30725523
5.79007772, 2.94108823, 4.02492236, 7.41788380, 14.36662800, 12.56881060, 6.86658576, 9.21411960
6.78601503, 3.06594194, 4.21307489, 7.42798761, 12.96919427, 12.70924860, 6.98032951, 9.19102823
6.66520817, 2.39269722, 3.46770818, 7.44479684, 13.74045123, 11.33578405, 7.47328576, 10.58772875
5.31742419, 2.03100960, 3.05777697, 7.95298686, 14.50430970, 11.80783638, 6.92639878, 9.68504001
5.86088730, 2.26384628, 3.75499667, 7.84059947, 13.62075622, 11.23053872, 5.60357029, 7.34506637
7.01605302, 2.51992063, 3.96232255, 7.73950903, 13.20227253, 8.88256720, 5.94138031, 7.56967635
8.18840644, 2.75227179, 3.44963766, 7.26808090, 11.51086443, 9.14193634, 5.61471282, 8.96939240
8.19451036, 2.66926956, 3.01662063, 6.29086640, 13.91581834, 13.51295675, 4.66904701, 9.30188153
7.89778450, 2.31300670, 2.93683503, 7.26119825, 15.57000321, 14.30471950, 5.17687164, 8.38450953
7.20416546, 2.13307290, 3.72491611, 9.06917857, 15.83824485, 12.79159881, 7.27495704, 9.15559938
7.08166647, 2.42383993, 3.90192260, 8.60232527, 14.96078207, 10.62779375, 7.01961537, 8.27798285
6.47881162, 2.57390754, 3.82426464, 8.41872912, 14.77920837, 11.15459547, 6.37965516, 7.78781099
5.36889188, 2.46475151, 3.52491135, 8.15015337, 15.55152726, 14.76143624, 6.38357267, 9.01526483
6.69514750, 2.40312297, 4.03112887, 8.95404936, 14.20827224, 12.20348311, 5.66127194, 8.54400375
6.84835747, 2.17944947, 4.11096096, 9.14740400, 14.44212588, 12.54691197, 7.42125326, 8.23103882
6.21087755, 1.84390889, 2.80178515, 6.79337913, 14.52325721, 15.83903406, 7.10457599, 8.28402076
6.25499800, 1.72481883, 2.46475151, 6.93361378, 12.09235296, 12.56980509, 8.24469526, 8.61829449
6.52303610, 1.93649167, 2.88530761, 7.06753139, 11.14562695, 7.97809501, 8.34415963, 7.98749022
5.73585216, 2.09761770, 3.36526373, 7.55148992, 13.21741276, 9.08295106, 6.27295784, 8.02963262
5.83737955, 2.21923410, 3.33541602, 9.80688534, 18.96707674, 10.55343546, 6.65582452, 7.69577806
7.86288751, 2.88963666, 3.40954542, 9.48419738, 17.51427989, 12.94121324, 6.53452370, 9.90959131
8.84166274, 2.99583044, 2.97069016, 7.70389512, 10.74243920, 12.56184700, 6.39726504, 11.22274476
9.42072184, 2.52982213, 2.33987179, 8.43949051, 12.79062156, 13.63634848, 7.59769702, 9.58253620
10.18700152, 2.23047080, 2.50998008, 8.61394219, 15.27661612, 17.84096410, 8.46315544, 12.08097678
9.54856010, 2.21923410, 2.39269722, 6.76572243, 15.70668647, 16.24422974, 7.37224525, 11.65010730
8.42169817, 2.57875939, 3.15832234, 5.98957428, 14.96829984, 17.24891301, 8.27798285, 8.86284379
8.11788150, 2.52487623, 3.63318042, 7.83900504, 14.74194695, 18.22566871, 8.82184788, 9.30725523
8.61684397, 2.53475837, 3.10241841, 8.53229160, 13.20889852, 13.17668395, 6.68580586, 8.72066511
9.87800587, 2.35053185, 2.70647372, 7.93725393, 13.20227253, 13.50277749, 5.15509457, 8.45428885
15.44991909, 2.47991935, 3.80460248, 8.02807573, 17.25833132, 14.37010786, 8.76926451, 7.83581521
14.85345078, 2.96226265, 4.16833300, 8.47053717, 19.18267447, 14.22409927, 10.28712788, 9.24121204
12.77301844, 2.91118533, 3.28633535, 7.85175140, 16.43319811, 16.72049640, 9.02219485, 9.41806774
14.28635713, 2.44948974, 2.71108834, 6.72123501, 12.05715555, 17.30462366, 9.28708781, 9.15423399
10.69111781, 3.02076149, 6.24899992, 7.05336799, 10.54277003, 17.22135302, 7.57792848, 8.32616358
10.01998004, 4.63411264, 11.54231346, 9.00555384, 12.58570618, 18.13284313, 8.38749069, 7.43135250
13.19090596, 4.64758002, 11.09504394, 9.05814551, 15.99609327, 15.41995460, 11.37760959, 11.27718937
11.64903429, 6.39335593, 17.87176544, 9.92849435, 16.14698114, 15.13439791, 20.82966634, 10.67122299
8.49264388, 11.56070932, 30.30676492, 13.32291259, 12.56184700, 23.31898368, 22.74697782, 7.65669642
10.41393297, 11.63615057, 30.94672842, 14.59708875, 14.21970464, 23.06512519, 19.75221507, 8.02807573
10.31503757, 7.25430906, 19.82738006, 10.94417653, 16.81814496, 15.51612065, 21.13468713, 10.27131929
9.99874992, 7.28182669, 16.56804153, 7.74758027, 15.64448785, 11.80677771, 16.25499923, 10.72147378
9.29919351, 10.48928024, 25.38257276, 9.69278082, 14.15803659, 14.23903087, 10.84204778, 9.89317947
6.85930026, 14.87615542, 40.04091657, 12.68660711, 13.41081653, 17.06971002, 10.81549814, 9.89444288
9.48287931, 14.17391971, 38.31187805, 14.42827086, 12.06441047, 18.05893131, 10.69696219, 9.13372870
9.80051019, 8.77496439, 19.57357913, 12.05819224, 15.43048930, 16.46055892, 15.34682378, 7.81024968
6.07042008, 6.32653144, 12.59067115, 9.20733403, 14.96495907, 13.98213145, 14.90218105, 6.72495353
8.52056336, 6.16238590, 11.79830496, 9.69535971, 13.46384046, 13.16149688, 8.88397434, 10.78888317
9.08707874, 6.04359165, 12.56184700, 10.36942621, 16.67183253, 12.56383699, 11.11418013, 10.89265808
6.49807664, 7.09753478, 14.47497841, 11.49782588, 19.40296369, 13.77588473, 13.33135402, 8.14555093
6.93902010, 7.11336770, 13.77043935, 11.09279045, 19.29378138, 16.19876539, 13.13487724, 8.88960067
6.69141241, 4.82182538, 10.23230179, 8.55862138, 19.05387100, 15.41427909, 11.26720906, 8.07310349
6.12780548, 4.13823634, 8.59360227, 8.01716908, 19.84943324, 11.48586087, 8.09938269, 7.04450140
7.47495819, 4.58530261, 9.02358022, 8.47791248, 16.95140112, 12.11610498, 7.34336435, 7.28525909
7.59440584, 4.87083155, 9.84631911, 9.42204861, 14.96078207, 12.97882891, 8.39791641, 10.28105053
7.26980055, 5.43599117, 9.73909647, 9.68633057, 16.75335787, 12.35313725, 7.74112395, 10.43072385
7.77978149, 6.23899030, 9.42204861, 9.26822529, 24.71487406, 13.89964028, 5.05470078, 11.03856875
6.75092586, 5.14295635, 8.43800924, 9.50131570, 23.70179318, 12.46996391, 6.23097103, 11.71110584
5.76411311, 3.25960120, 7.09224929, 8.47201275, 14.67736352, 7.96398142, 6.84653197, 8.86002257
5.95818764, 3.43874977, 7.33995913, 7.47495819, 18.00486045, 10.33077925, 5.52946652, 9.57862203
5.81807528, 3.38747694, 6.80624713, 7.09224929, 19.88969582, 10.35615759, 6.88839604, 11.43022309
5.24642736, 3.02902625, 6.70447612, 7.17635005, 18.94795503, 8.97635784, 6.81909085, 10.21151311
5.97285526, 2.62678511, 6.68019461, 8.27949274, 22.04313952, 10.40192290, 5.49545267, 8.90926484
6.57647322, 3.34664011, 6.86294397, 8.05605362, 23.10898094, 11.63400189, 5.26782688, 7.53823587
6.49037749, 3.57071421, 6.94082128, 7.17460800, 22.43991979, 12.04159458, 4.85025773, 10.86968261
8.37108117, 3.42782730, 5.09411425, 7.38579718, 22.27330240, 13.56650287, 6.57837366, 15.48709140
8.24317900, 3.47131099, 4.36176570, 8.93448376, 18.60174723, 11.92581234, 6.24099351, 13.44339987
5.75760367, 2.91976026, 4.48887514, 8.55862138, 19.55505050, 7.06753139, 3.98748041, 11.05667219
5.59910707, 3.27108545, 4.23969339, 7.57132749, 19.25811517, 7.00357052, 4.51663592, 11.23165170
5.27730992, 3.20156212, 5.13565965, 8.92188321, 19.30802942, 9.56425637, 4.64758002, 10.06354808
6.02079729, 2.54950976, 5.56102509, 8.13941030, 19.51922130, 9.36215787, 4.31856458, 9.46176516
7.63380639, 2.50998008, 5.09411425, 8.38450953, 15.37042615, 7.98435971, 6.34231819, 12.03432591
6.62570751, 3.06594194, 5.58569602, 8.61974478, 20.81706031, 10.28226629, 6.76572243, 12.88409873
6.24899992, 4.03422855, 6.25899353, 8.78919792, 20.12461180, 9.91337480, 6.52111954, 11.00681607
7.14142843, 4.62601340, 5.33619715, 9.95489829, 15.00749813, 8.41872912, 7.24051103, 10.41273259
7.53989390, 4.09572948, 3.95284708, 8.47791248, 15.66764181, 7.82623792, 6.73424086, 9.25202680
7.82304289, 3.73162163, 4.58257569, 8.29457654, 16.46131829, 7.25430906, 5.31977443, 8.02496106
8.42318230, 4.05585996, 4.62871472, 7.80544682, 21.92943228, 9.29247007, 4.44128360, 9.70824392
7.94040301, 4.46934000, 3.57421320, 6.86476511, 24.97598847, 10.50357082, 4.27784993, 10.84896308
6.56696277, 5.06458290, 3.31285375, 6.21892274, 21.02855202, 9.51183473, 5.02244960, 10.59008971
5.94978991, 4.35603030, 3.62629287, 5.93927605, 15.93973024, 8.27345152, 4.83218377, 9.50657667
6.67645115, 3.42417873, 4.06509532, 7.75725467, 15.19868415, 8.41872912, 3.43147199, 7.26119825
6.83556874, 3.95284708, 3.93700394, 8.57029754, 17.65998301, 9.01110426, 3.16622804, 8.76926451
6.14817046, 3.70135110, 4.24264069, 7.84059947, 18.33780249, 8.69051207, 2.91547595, 9.83742853
7.15017482, 3.02076149, 3.70472671, 7.38918128, 16.58764601, 8.41724420, 6.43816744, 8.70201126
9.21004886, 3.82426464, 3.94968353, 8.47791248, 14.51378655, 8.87130205, 6.70820393, 10.39471019
8.07000620, 4.14125585, 4.55521679, 8.63278634, 18.71830655, 8.73069299, 4.56618002, 11.49565135
5.23450093, 4.23379263, 4.61789996, 7.80544682, 20.71231518, 7.52828002, 5.06458290, 8.98610038
6.42261629, 3.96862697, 4.23083916, 6.27096484, 17.19738352, 6.97674709, 4.18330013, 7.77174369
7.27151979, 3.23651047, 3.84057287, 6.41677489, 19.70596356, 7.51332150, 4.41588043, 10.41033141
8.35763124, 3.29013678, 4.75131561, 9.74166310, 18.22841189, 6.37573525, 4.30116263, 12.04470838
8.33366666, 4.27784993, 5.08920426, 11.20267825, 20.79783643, 8.71206061, 4.70106371, 10.77961038
6.85747767, 4.11400049, 4.17133072, 8.83176087, 23.46593275, 10.85587399, 5.12347538, 8.99861100
5.27730992, 2.95803989, 2.79732015, 6.08276253, 17.15444549, 9.08707874, 4.94974747, 7.67951821
5.08674749, 2.99583044, 3.56370594, 7.65506368, 17.61249556, 8.64146978, 5.48634669, 7.60263112
6.81909085, 2.76586334, 4.18628714, 8.35613547, 18.56273148, 7.11512474, 4.06509532, 8.28854631
7.05513997, 3.58468967, 4.31566913, 10.81665383, 23.80178565, 7.80384521, 3.25960120, 9.05400464
13.01249400, 4.18927201, 4.32145809, 10.73312629, 24.27447219, 8.88397434, 4.49444101, 11.48368408
14.43260198, 3.68442669, 4.20416460, 9.20461841, 17.53567792, 7.73142936, 5.18893053, 12.03017041
8.53375650, 3.75832409, 4.04042077, 9.16787871, 18.21812285, 8.65881054, 4.49722136, 9.90706818
5.20576603, 3.92428337, 3.51781182, 7.62069551, 19.43772106, 7.68277294, 5.21536192, 8.12096053
5.68990334, 3.77822710, 3.97806486, 7.96084166, 18.39972826, 6.50768776, 5.74891294, 9.25607908
5.98539890, 3.50356961, 4.56070170, 7.77817459, 16.00781059, 7.97652807, 5.40601517, 8.66458308
6.12372436, 2.97069016, 4.75657440, 9.90959131, 15.85007886, 8.09320703, 4.92950302, 7.38918128
7.73142936, 3.12249900, 4.25440948, 11.74414748, 16.19799370, 7.31436942, 3.57421320, 12.03432591
7.50333259, 3.08220700, 3.43874977, 11.27829774, 15.84692399, 7.28182669, 4.03422855, 12.65405073
6.03945362, 3.90512484, 5.20816666, 10.99431671, 19.79267541, 7.70876125, 3.97806486, 10.91100362
7.34846923, 4.39033028, 5.91185250, 11.55205609, 20.57668584, 7.97339326, 4.97242396, 13.57479282
9.60858991, 4.20119031, 6.78601503, 9.97120855, 18.01596514, 7.50166648, 7.26464039, 14.34660239
10.71564277, 4.32434966, 7.55645419, 7.99061950, 20.63492186, 6.78232998, 6.77310859, 13.17763256
9.08570305, 3.93700394, 7.22495675, 9.41939489, 19.07354188, 6.09507998, 4.45813863, 11.31702258
6.20685105, 3.90512484, 7.16065639, 9.01387819, 17.61036627, 6.39531078, 5.25594901, 9.15423399
6.91917625, 3.75166630, 7.75241898, 8.78635305, 17.07263893, 8.28402076, 6.02079729, 10.58890929
8.73498712, 3.51781182, 7.96084166, 9.37549999, 18.65810816, 9.19374788, 5.58345771, 10.29320164
7.71200363, 3.72155881, 8.09166238, 8.84448981, 20.08357538, 8.64291617, 5.38052042, 7.85334324
8.02184517, 3.48209707, 8.77923687, 9.07606743, 15.97106759, 8.18687975, 4.41021541, 9.96242942
8.36510610, 3.17804972, 8.45576726, 9.63976141, 16.95803644, 7.43975806, 3.10644491, 12.20553153
7.62725377, 3.29393382, 7.47328576, 9.19510739, 17.90041899, 7.93725393, 3.65376518, 11.12092622
7.86606636, 3.85032466, 8.32165849, 10.43910916, 18.40584146, 7.94355084, 4.93203812, 10.69462482
8.03585714, 3.54259792, 7.96241169, 11.40065788, 16.63129580, 6.20886463, 4.46934000, 12.73479486
7.86447710, 3.38378486, 8.04363102, 10.13533423, 16.01171446, 6.24099351, 3.51069794, 12.91704301
7.19722169, 4.39317653, 9.09807672, 9.02219485, 23.59025222, 8.58778202, 4.22196637, 10.58064270
7.07283536, 4.18927201, 7.94197708, 7.82304289, 20.98630506, 7.61577311, 3.64691651, 11.67690027
6.97316284, 3.77822710, 8.03585714, 7.06576252, 13.78042089, 5.40138871, 4.40170422, 11.09279045
7.14492827, 3.90832445, 6.84653197, 7.32120209, 15.61809848, 6.92098259, 5.14538628, 7.42967025
6.62193325, 3.38747694, 5.76411311, 7.50666371, 16.75335787, 8.30361367, 5.60357029, 10.05360632
6.10327781, 3.76164857, 6.30277717, 7.53325959, 16.94550088, 9.11454881, 5.47265932, 11.77497346
5.69868406, 3.78153408, 6.06630036, 8.87552815, 13.11201739, 8.37705199, 4.18628714, 9.96619285
8.01560977, 3.02489669, 5.47494292, 9.04986188, 14.28198166, 8.25378701, 4.62601340, 8.82751381
8.00312439, 2.87662997, 4.40738017, 8.49117189, 19.19114379, 8.71062570, 5.32681894, 8.65881054
7.17112265, 2.72488532, 4.72757866, 8.81334216, 19.00986586, 7.98279400, 4.79322438, 8.99861100
9.50131570, 3.53553391, 6.13595958, 7.64198927, 17.25398505, 7.30924073, 4.43846820, 10.17472358
8.99305287, 3.55668385, 6.15223537, 9.63716763, 20.52620277, 7.54652238, 4.61519230, 10.16980826
7.89303490, 2.61247010, 4.89897949, 9.80306075, 19.75474627, 6.68767523, 4.77493455, 12.11300954
8.01093003, 2.46981781, 4.76182738, 7.22668665, 18.39769007, 6.57457223, 4.81404196, 11.92057046
7.94040301, 2.85482048, 4.30987239, 8.13480178, 19.37072533, 7.92622230, 5.01497757, 9.52496719
6.97853853, 2.75680975, 3.87943295, 8.28703807, 15.58524944, 8.10709566, 4.94216552, 9.93101203
5.83737955, 2.61247010, 3.78813938, 7.06576252, 14.33352713, 7.40101344, 4.37892681, 9.04018805
6.51728471, 2.72946881, 3.87943295, 6.39726504, 15.59647396, 7.22322643, 4.46654229, 9.16924206