2.40831892, 3.25192251, 4.17731971, 11.52605744, 51.85605076, 46.56930319, 22.14836337, 4.44128360
3.03726851, 4.53045252, 4.73286383, 12.09958677, 54.23444477, 40.71916011, 24.51020196, 5.52041665
14.49310181, 19.16311561, 8.97775027, 16.83300330, 63.64216370, 35.92805311, 31.07973616, 8.09320703
25.99230655, 32.85574531, 11.70149563, 19.59910712, 60.69822897, 30.09028082, 34.53295527, 10.42952540
24.93541658, 31.02901868, 10.70046728, 16.36001222, 48.58240422, 39.10210992, 29.73087621, 10.90068805
17.92344833, 21.58992821, 8.97775027, 13.15389676, 41.69622285, 41.16339393, 28.62865697, 10.17595204
19.59783151, 24.48417856, 8.82326470, 11.71430749, 39.34907877, 33.63480340, 31.38590448, 15.19210321
21.05884612, 24.43204862, 8.56300181, 10.50000000, 42.81559295, 31.69266477, 30.32367062, 16.31487052
21.57023412, 21.09798569, 7.40945342, 10.15750954, 42.50088234, 34.74802153, 32.50846044, 13.17858111
22.50944246, 20.95292342, 6.53069675, 10.46780779, 38.32394813, 37.81897672, 31.06646102, 9.96493853
22.41037706, 21.33951733, 7.41451280, 9.85900604, 34.01727502, 34.83102066, 22.40758800, 5.96866819
20.82426469, 21.50406938, 7.42125326, 9.07193474, 34.09105455, 31.82334049, 22.84184756, 6.07659444
18.20988742, 19.90351728, 5.57449549, 8.69195030, 35.39738691, 33.05487861, 29.53853415, 6.35806574
17.03305610, 21.18431023, 6.28887907, 8.86848352, 35.40268351, 34.12367214, 32.03279569, 9.06642157
16.56955039, 19.67993902, 5.98539890, 8.91347295, 45.99918478, 29.27370834, 26.83887106, 9.50657667
16.66958308, 14.26446634, 5.44058820, 8.61539320, 43.21458087, 30.53604428, 21.75028735, 13.71951165
15.36229150, 14.49827576, 6.53261050, 8.53082645, 29.52625950, 31.81548365, 25.65492156, 14.53530185
13.47683197, 13.61616686, 6.60302961, 8.90224691, 31.98085365, 37.53531670, 31.35003987, 12.20655562
15.33786165, 12.27599283, 8.34266145, 13.83925576, 46.75120319, 38.17689092, 29.99124872, 18.28182157
13.74408964, 11.45753027, 8.75928079, 14.14390328, 47.20752059, 35.76695402, 27.82939094, 17.54921651
17.30245647, 16.95361318, 7.98122798, 11.69829047, 32.00156246, 42.85527972, 28.87689388, 12.90542522
18.30232226, 17.84796907, 7.22322643, 11.99166377, 37.04827931, 46.47795176, 26.77825610, 12.24336555
12.70826503, 12.49099676, 6.44010869, 10.44868413, 40.55798318, 39.11105982, 27.60117751, 9.29381515
13.18616699, 12.01457448, 6.26697694, 9.44457516, 40.42647647, 31.83512211, 32.25871975, 10.70630655
14.24780685, 15.72339022, 5.98539890, 8.28552955, 37.50699935, 36.12132334, 30.89700633, 13.29191484
14.02230366, 15.51612065, 6.37377439, 6.84653197, 33.76610727, 38.78724017, 29.70521840, 16.32023284
13.50740538, 11.69722189, 6.68954408, 6.36396103, 35.76450755, 39.34431344, 29.18518460, 18.17759610
11.17586686, 12.42376754, 6.89383783, 6.81542368, 42.66350900, 39.32206760, 30.21630355, 16.32635906
12.20245877, 15.34438008, 7.38579718, 8.43504594, 42.79164638, 41.90167061, 34.16394298, 14.94155280
13.35383840, 17.41479256, 7.17983287, 9.15150261, 41.57252699, 39.84375735, 29.90652103, 15.99921873
11.86486410, 15.35985026, 6.01040764, 7.60098678, 39.62543375, 33.81826430, 25.68316569, 14.01427843
13.85730854, 14.62104647, 6.84470598, 7.65669642, 32.74980916, 39.16184367, 25.61542504, 11.73456433
14.64752539, 14.06058320, 6.65770231, 6.94082128, 30.93662878, 43.23887140, 29.72793299, 13.79402044
15.24877044, 15.37205256, 5.92452530, 6.43039657, 27.54859343, 40.34445439, 31.43445562, 13.13868334
13.83293172, 14.26183719, 5.57000898, 6.69701426, 32.50692234, 35.15999147, 25.56804646, 12.15524578
9.92471662, 11.09842331, 4.94216552, 6.68206555, 38.40865788, 29.11657603, 26.14335480, 11.76435294
12.90058138, 14.89966443, 5.65685425, 7.71524465, 37.55595825, 29.84040884, 30.48852243, 13.46476884
13.00384559, 14.01962910, 5.53850160, 7.67137537, 32.44842061, 33.57975581, 33.33054155, 16.82557577
11.36661779, 12.75441100, 4.81404196, 7.03740009, 33.61175390, 33.19487912, 31.88769355, 16.39512123
10.87313202, 15.35659467, 5.31977443, 5.85875413, 37.69316914, 36.65412664, 32.42491326, 15.22990479
9.00694177, 13.29003386, 5.38284311, 6.12576526, 36.21084092, 34.81199506, 29.63823544, 12.81210365
9.62029106, 11.14786975, 4.67974358, 6.55934448, 34.31763395, 28.91366459, 27.64416756, 14.60736116
9.92597602, 11.14226189, 4.72757866, 5.82451715, 29.06286290, 32.17297002, 25.79777122, 16.43547991
8.19298480, 8.51322501, 4.97493719, 6.25299928, 37.80542289, 36.02395037, 17.78271633, 16.34548867
8.04984472, 8.34565755, 5.36423340, 7.63708059, 40.92309861, 40.51080103, 21.08791123, 16.97056275
7.89145107, 9.18422561, 4.94469413, 7.17460800, 33.56672459, 38.56325972, 21.96872777, 16.54010278
6.33442973, 9.20461841, 4.23674403, 5.83095189, 34.71743078, 34.86581420, 22.55992021, 15.18716563
5.85234996, 7.92622230, 4.21010689, 5.99374674, 33.56188314, 36.35244146, 24.11431110, 14.59194984
6.04565960, 8.55716074, 3.80460248, 5.51588615, 32.23235952, 35.87443379, 24.92689311, 14.06413879
7.62889245, 8.71779789, 3.59861084, 4.41871022, 37.34434361, 39.03524049, 24.75277762, 10.36098451
8.03274548, 7.40101344, 4.40170422, 5.99166087, 37.10795063, 39.49588586, 30.18940211, 9.55771939
5.83952053, 9.08432716, 4.96235831, 7.32461603, 34.29285640, 39.71932779, 29.39175054, 12.58173279
8.09166238, 11.43568975, 4.77231600, 7.31266025, 40.15905875, 42.88735245, 20.47315315, 13.79492660
11.19709784, 14.31432849, 4.88108594, 6.55362495, 39.44901773, 41.45780988, 21.53137246, 11.92581234
10.26766770, 14.16156771, 5.94978991, 6.80808343, 31.79268784, 45.95378113, 25.63786263, 11.17362967
8.49705831, 10.85587399, 5.50681396, 6.61437828, 27.30842361, 41.05301451, 25.48970380, 10.91443998
6.94982014, 9.35414347, 4.41871022, 6.67270560, 32.42221461, 36.62103221, 28.89766427, 15.73213272
6.23297682, 10.19681323, 4.43846820, 6.76941652, 36.30082644, 52.47999619, 30.22995203, 16.24192107
8.06225775, 9.93604549, 4.15932687, 5.57000898, 31.69660865, 49.12305976, 26.14335480, 11.69935896
7.91359590, 8.47938677, 4.86569625, 6.48074070, 35.46723840, 29.75357121, 28.45083479, 11.81312829
6.49422821, 7.85334324, 4.68774999, 6.58596994, 35.51830514, 30.03456342, 26.38370709, 10.69929904
6.13595958, 7.68114575, 4.62060602, 5.50000000, 33.06508733, 38.00526279, 26.92118125, 14.76566964
7.01605302, 8.51616111, 4.88108594, 5.77278096, 37.38749791, 40.14100148, 30.44831687, 15.23318745
6.50192279, 8.14401621, 4.06201920, 5.19374624, 30.59901959, 37.64372458, 29.04393224, 11.65010730
5.01746948, 7.18331400, 3.74833296, 4.65564174, 23.51807815, 36.24637913, 25.91765807, 12.06337432
5.27730992, 6.28887907, 3.77822710, 5.64358042, 25.04296308, 31.91942982, 25.21457912, 11.15123312
9.77496803, 12.72988610, 4.23674403, 6.13595958, 31.86455711, 28.36547197, 25.64761197, 10.44748774
11.36111790, 16.30797351, 4.30697109, 6.42456224, 32.13603896, 32.85536486, 22.43267706, 9.91337480
8.27345152, 12.86468033, 4.12916456, 5.72494541, 22.23510738, 35.52252806, 25.01199712, 9.86280893
6.14817046, 8.40981569, 4.42718872, 4.71963982, 18.42349044, 35.61600764, 29.33342803, 10.04116527
6.71751442, 7.76691702, 4.56891672, 5.67230112, 19.38427197, 32.61249760, 29.01422065, 8.30060239
6.92459385, 8.56446145, 4.78800585, 6.28291334, 31.47379863, 39.46739160, 29.15304444, 8.58632634
6.66333250, 8.09629545, 4.49165894, 5.58121850, 32.80929746, 40.46171030, 26.42063587, 8.70344759
6.57076860, 7.10105626, 3.69120577, 4.78539445, 29.39472742, 32.33921768, 18.86928721, 8.32916562
6.38161422, 6.10532554, 3.61939221, 4.81663783, 33.02006965, 29.34578334, 20.55176391, 9.86914383
6.24299608, 7.12916545, 4.06201920, 6.07042008, 32.65233529, 32.03396635, 23.00000000, 9.58644877
6.04152299, 8.00468613, 4.40738017, 6.19677335, 28.47015982, 35.17811820, 19.65769569, 9.16378743
6.08481717, 6.51920241, 4.01870626, 5.37819672, 18.78163997, 33.63777638, 21.74798841, 8.84307639
6.67645115, 6.41872261, 4.15331193, 5.45893763, 24.11379273, 37.26392357, 25.10926124, 11.05893304
8.74928569, 8.44985207, 4.61789996, 6.15020325, 37.88040390, 35.72918975, 22.09185370, 11.84483010
9.99624930, 10.52615789, 4.86826458, 7.38579718, 41.02925785, 34.69149752, 19.75537901, 9.96368406
9.90580638, 10.39711498, 4.95227221, 7.17983287, 35.16816742, 33.85631403, 21.25558750, 8.60087205
8.06225775, 7.60920495, 4.34741302, 6.53834842, 29.47414121, 28.30150173, 19.60994646, 6.71937497
6.14206806, 6.91917625, 4.11096096, 6.07453702, 28.33901904, 30.30140261, 15.47982558, 8.95125689
6.00208297, 7.45821695, 4.35028735, 5.97494770, 32.16830738, 32.77880413, 13.25895924, 10.37183687
5.88854821, 6.70447612, 3.87620949, 6.07659444, 35.40409581, 34.35403906, 17.84236531, 9.52627944
5.89915248, 5.57225269, 2.92831009, 5.37819672, 32.47922413, 35.56859570, 21.83918497, 11.14899099
5.38980519, 4.97493719, 3.07001629, 5.09411425, 30.79204443, 30.88486684, 19.95056390, 11.81947545
5.56327242, 5.56327242, 3.42417873, 4.85540935, 31.98085365, 25.84811405, 18.00069443, 10.63014581
6.15426681, 6.32850693, 3.71819849, 5.76628130, 28.46005973, 25.77353294, 17.51142484, 8.73069299
6.31466547, 6.95521387, 4.28369000, 6.13188389, 25.78565493, 29.08393027, 19.14288380, 8.97496518
6.85747767, 8.84590301, 4.37321392, 6.39335593, 29.09123579, 40.47283039, 23.00706413, 13.40429036
7.95141497, 11.00454452, 4.11703777, 7.10809398, 32.95413479, 40.89651574, 24.01718135, 15.72736469
7.84378735, 9.16924206, 4.18628714, 6.85383105, 31.51864528, 35.10804751, 21.74109013, 18.30505395
6.90651866, 6.04359165, 3.92109679, 6.01040764, 32.79214845, 34.88158540, 19.76423538, 18.18928256
5.77494589, 5.64800850, 3.15832234, 5.34322000, 37.47065519, 29.76995129, 17.57270611, 13.61708486
5.10636857, 5.87367006, 3.17804972, 5.29386437, 32.29589757, 26.57442379, 16.29800601, 10.28834292
6.09507998, 6.94622199, 3.82099463, 5.80517011, 27.01481075, 31.09501568, 17.75246462, 10.15012315
6.12372436, 7.98435971, 4.16533312, 6.50000000, 26.24118900, 34.01286521, 20.98570942, 11.25944048
6.15426681, 9.29247007, 3.81116780, 6.87749955, 30.95440195, 35.46512371, 23.85529291, 10.94988584
6.94262198, 8.37705199, 3.48926926, 5.70964097, 34.25164230, 35.59775274, 20.59368835, 10.59363016
7.33143915, 6.33442973, 3.67763511, 4.99249437, 29.53472532, 29.83705750, 14.60393783, 12.98653148
7.11512474, 6.85200701, 3.77822710, 5.54301362, 30.14299255, 25.24282076, 15.02165104, 15.92246840
7.15541753, 9.82344135, 3.91152144, 6.06217783, 36.92627791, 34.86509716, 15.96245595, 17.45064469
6.86294397, 10.63837394, 3.73831513, 7.93567892, 37.17324307, 33.16097104, 17.33060876, 18.67284124
9.02080928, 11.47497277, 3.97492138, 7.37224525, 30.66798004, 19.28406078, 18.21880896, 18.54454098
11.99270612, 13.10438858, 5.17687164, 6.81909085, 27.81681146, 23.09545410, 16.65457895, 16.07171428
10.94874422, 10.66302021, 4.92188988, 7.31095069, 28.82576972, 28.05931218, 16.46511464, 17.62313820
8.69482605, 10.43192216, 3.36897611, 5.28441104, 27.48272184, 27.28735971, 18.24143635, 20.53046517
9.55248659, 12.45792920, 3.78483817, 5.43599117, 28.93224844, 34.34676113, 16.17946229, 16.94845126
9.23985931, 11.25166654, 4.86055552, 6.73609679, 32.20597771, 37.37913857, 21.69504552, 13.46755360
8.87411967, 14.53272170, 5.34555890, 6.57837366, 29.83244878, 30.45201143, 24.02342607, 17.33854088
8.34565755, 13.61341250, 4.39317653, 6.33442973, 27.76958768, 30.46063033, 17.96385259, 21.48080539
7.14842640, 7.50499833, 2.70185122, 5.06458290, 26.33201473, 32.55072964, 18.61652492, 18.91295852
7.33143915, 7.96084166, 2.97069016, 4.49444101, 26.60357119, 27.36649411, 17.15881698, 13.52867325
6.82458790, 6.88839604, 3.38378486, 5.85021367, 29.64371772, 30.78636062, 14.84840059, 14.81806330
5.86301970, 5.63693179, 3.20936131, 5.86088730, 32.48499654, 32.13214901, 13.27685957, 14.28198166
6.02079729, 6.13595958, 3.92109679, 7.40776620, 30.97055053, 33.87034101, 18.19958791, 13.42106553
7.49333037, 6.39335593, 4.03112887, 6.92459385, 30.25764366, 48.32597645, 25.45289767, 13.78858223
6.66520817, 5.61471282, 3.55316760, 4.68508271, 29.53049272, 43.06129352, 22.41762699, 12.52297888
5.65685425, 6.08481717, 3.41320963, 7.00535509, 26.34577765, 28.94736603, 16.23114290, 13.38469275
5.18411034, 5.96866819, 3.26343377, 9.01110426, 24.94343601, 28.51885341, 15.64368882, 13.12630946
3.79473319, 4.68508271, 3.55316760, 8.37705199, 28.03524567, 28.95772781, 18.86464948, 15.38099477
4.59619408, 5.53624421, 3.53553391, 7.46491795, 28.14471531, 31.13478762, 18.99341991, 19.83242295
5.31272058, 5.00999002, 3.24037035, 7.79422863, 34.10241927, 30.45406377, 17.44706279, 18.41941910
4.97242396, 3.92428337, 3.74833296, 10.57827963, 34.77427210, 29.91320779, 19.88466746, 15.58444738
4.35889894, 4.62060602, 4.65295605, 11.90378091, 25.95813938, 26.19637379, 18.91229759, 14.22937103
3.80788655, 4.82700735, 4.85283422, 9.68891119, 26.23023065, 31.36478918, 14.67651185, 13.35290231
3.59861084, 4.89642727, 4.10487515, 7.66648551, 26.95088125, 32.63931678, 15.53141977, 12.74460670
4.14427316, 4.69574275, 3.71146871, 9.44986772, 29.52541278, 25.80455386, 17.29017062, 13.52312834
5.33619715, 4.12007281, 4.23379263, 11.80148296, 38.28315556, 28.59064532, 18.18309655, 19.47947638
5.76194412, 4.62601340, 3.81772183, 9.68633057, 40.15563472, 33.86111339, 18.84940317, 17.77638883
5.17204022, 5.12591455, 4.09267639, 7.46659226, 35.17918419, 32.13292704, 18.93805692, 14.87111294
4.97242396, 5.39444158, 4.48608961, 9.91589633, 36.05031207, 24.35826348, 18.48377667, 16.62302620
4.35603030, 4.66904701, 4.21900462, 10.94988584, 38.36795538, 25.39094327, 13.38936145, 11.55422001
3.78153408, 3.90832445, 3.92428337, 9.73010791, 36.78348814, 29.44613727, 11.86064922, 7.52994024
4.50277692, 4.56070170, 3.50000000, 8.39940474, 33.19751497, 27.81546333, 14.95576812, 11.72284095
5.09411425, 5.06705042, 4.45533388, 8.64436232, 35.22463626, 32.68485888, 16.50075756, 11.98123533
5.64358042, 5.77927331, 5.05470078, 8.64436232, 39.10882253, 35.46371385, 17.93599732, 8.84731598
5.53850160, 5.80301646, 5.99791630, 7.81024968, 33.34403995, 29.39387691, 22.05391122, 8.89803349
5.86088730, 6.05392435, 5.86301970, 8.74785688, 33.70200291, 27.12240771, 18.79561119, 9.75576752
5.77711000, 6.41482658, 3.71146871, 8.76070773, 38.79884019, 28.28029349, 12.73479486, 10.31867240
4.82182538, 5.90338886, 3.30907842, 6.87022561, 38.39824215, 24.72953700, 17.93460342, 10.72147378
4.28660705, 5.11126208, 4.27784993, 7.31778655, 36.55680511, 29.64498271, 19.55505050, 10.35253592
4.16833300, 4.33012702, 4.21307489, 7.83900504, 28.87689388, 31.70607197, 19.25486951, 10.47854952
4.25440948, 4.21900462, 4.03112887, 7.82943165, 28.92922398, 29.15175809, 18.60107524, 10.86393115
4.30116263, 4.25734659, 3.95916658, 7.80064100, 32.82377187, 31.24139882, 18.91758441, 11.37431317
4.65564174, 4.35889894, 3.07814879, 6.93902010, 33.86369738, 34.35076418, 20.19343953, 11.29822995
4.43001129, 4.48608961, 2.80624304, 5.54075807, 31.27778765, 40.78786584, 25.07339227, 10.13533423
4.03422855, 4.90153037, 3.43147199, 5.92030405, 29.06544340, 41.98065030, 28.03658324, 10.97269338
4.00312378, 5.02244960, 3.35037311, 6.78417276, 32.78337994, 36.62444539, 25.54701548, 10.66887998
4.05277683, 4.49722136, 3.26343377, 6.87204482, 32.20093166, 35.66160400, 22.53552751, 9.92219734
5.07690851, 5.43139025, 3.92428337, 7.13267131, 30.87515182, 34.24251743, 21.40210270, 12.70334602
5.78575838, 5.14538628, 3.77491722, 6.69888050, 29.15518822, 34.95246772, 26.16295090, 13.61065759
5.32681894, 4.06509532, 3.30529878, 6.65394620, 30.94551664, 31.88612551, 27.42580901, 12.90155029
4.91680791, 4.51940262, 3.12249900, 6.29285309, 35.75541917, 25.13065857, 20.20643462, 12.41370211
5.32916504, 4.81144469, 3.29393382, 6.74722165, 32.14615062, 31.92530344, 16.74589502, 12.68759236
5.14295635, 4.74868403, 3.46049129, 8.25681537, 37.22700633, 36.58278284, 19.64942747, 11.15683647
4.27200187, 4.79583152, 3.94017766, 7.69252884, 41.83867828, 43.85686947, 24.35928981, 10.15504801
4.19523539, 4.78539445, 4.23083916, 6.23097103, 37.14027464, 45.27802999, 31.42729705, 13.01537552
4.46374282, 5.54526825, 3.96232255, 6.33837519, 35.30226622, 40.37511610, 28.49824556, 13.26744135
5.74238626, 5.76411311, 3.84057287, 5.52041665, 30.51106357, 40.40235142, 22.12916627, 13.39309524
5.81807528, 5.11859356, 4.13823634, 4.50555213, 27.88458355, 36.92052275, 23.36289794, 14.54132044
4.86055552, 6.03531275, 4.45813863, 5.14295635, 27.63331323, 31.55867551, 22.25252795, 16.11521021
5.24166004, 5.95189046, 3.68103246, 5.07198186, 30.93460845, 33.79977811, 21.64601580, 14.01338646
4.59619408, 5.33853913, 3.33541602, 5.15509457, 36.52601812, 37.14229395, 23.27713470, 9.92345706
4.71699057, 5.88854821, 4.21604080, 7.42293742, 29.47880595, 34.55864581, 22.30975123, 11.38968832
4.95227221, 5.08428953, 4.05894075, 8.11942116, 24.68805379, 31.32890040, 17.67130442, 14.37880384
3.86328875, 4.08350340, 3.35782668, 6.37573525, 28.49166545, 29.70521840, 18.86332420, 13.33979010
3.78153408, 4.30987239, 3.11448230, 6.11759757, 30.95399813, 28.11005158, 19.62014271, 13.70948577
4.12310563, 4.01559460, 3.66742416, 7.05336799, 36.99053933, 23.54941613, 17.97776404, 14.53702170
5.64136508, 4.06509532, 4.02181551, 8.43208159, 36.64116537, 21.89349218, 16.81071087, 12.03640312
5.62805473, 4.43001129, 3.36526373, 7.57462870, 31.06967975, 32.24709289, 20.27991617, 9.98999499
4.13219070, 4.09878031, 3.51425668, 6.59166140, 27.40027372, 41.95175801, 22.88722351, 8.42763312
4.12916456, 4.71168760, 3.49642675, 6.61248819, 24.98899758, 39.03203812, 21.13527856, 13.76226726
4.60163015, 5.81377674, 4.78800585, 5.39907399, 31.07651847, 37.85399583, 26.95366394, 15.64129151
5.88217647, 5.79870675, 5.52946652, 6.81175455, 34.07748524, 39.69981108, 27.29926739, 14.07835218
5.55427763, 5.12103505, 4.38748219, 6.98391008, 25.92633796, 32.84280743, 27.20891398, 11.49782588
4.08350340, 3.88587185, 3.32415403, 6.45561771, 32.34076375, 32.19860245, 27.02822599, 9.95238665
3.44601219, 3.58120092, 2.82842712, 6.42650761, 40.90140584, 34.08995453, 22.67487596, 12.09131920
5.01746948, 3.70472671, 3.05777697, 6.17656863, 35.52358372, 37.08773382, 23.40192300, 12.56284204
6.06630036, 3.58468967, 3.07408523, 6.25499800, 31.67293798, 38.10708596, 21.18844024, 10.42952540
4.83218377, 4.13219070, 3.41686991, 6.27495020, 30.66920279, 32.05464085, 15.65566990, 8.17159715
4.93710441, 4.67172345, 3.53906767, 6.61437828, 31.35602016, 33.01211899, 16.99043849, 8.31264098
5.93506529, 5.07690851, 3.38008876, 6.50576667, 29.03489280, 34.39004216, 18.59637061, 10.05609268
9.11729126, 4.79843725, 3.18982758, 5.60802996, 23.88828165, 27.97275460, 19.52562419, 12.66195088
9.09395404, 4.02802681, 3.17411405, 5.42448154, 25.71867026, 26.14383292, 26.72639145, 14.88959368
8.92468487, 3.73162163, 3.61939221, 5.80086200, 30.36198281, 30.72498983, 25.13811847, 13.62350909
11.57691669, 3.72491611, 3.31662479, 5.55202666, 34.68573194, 31.38829400, 16.89378584, 9.66695402
13.47312139, 4.82182538, 3.35037311, 6.59355746, 30.87353235, 26.92721671, 15.26515640, 9.18694726
13.61800279, 4.93457192, 3.65034245, 7.63053078, 28.14249456, 22.15908392, 18.36709013, 9.68245837
10.60660172, 4.66368953, 3.60555128, 6.73424086, 27.62788446, 26.00721054, 18.83215336, 12.48198702
10.80509139, 5.06705042, 3.48209707, 5.87579782, 24.78608481, 34.59009974, 14.90134222, 13.50833076
13.24292264, 4.70372193, 3.30529878, 5.92452530, 26.76331444, 35.96665122, 17.17920254, 11.98123533
13.64825996, 4.78800585, 3.35037311, 5.74456265, 33.17378483, 33.78165182, 20.31501907, 13.27026752
11.24388723, 5.51135192, 3.59165700, 5.23927476, 36.48698398, 29.12258574, 16.81814496, 13.76680791
10.46780779, 4.95227221, 3.70472671, 5.03736042, 31.25059999, 24.72903152, 13.70401401, 10.00624805
10.02372186, 3.87620949, 3.38378486, 5.35023364, 30.72661713, 21.08138990, 12.95665852, 6.29086640
10.25548634, 3.89551024, 3.50000000, 7.07990113, 37.69250589, 20.42853397, 10.27983463, 12.04989627
10.29684418, 3.95284708, 3.59861084, 7.53989390, 37.49533304, 19.82233589, 16.46359620, 13.16054710
7.95927132, 3.88908730, 3.54964787, 7.39763476, 35.50704156, 17.28800162, 19.54865724, 11.00454452
7.85493475, 3.59513560, 3.20936131, 6.67083203, 33.96063898, 23.90240574, 16.87824043, 15.35252422
7.08872344, 4.13219070, 2.79732015, 5.32447180, 37.54697058, 24.31820306, 15.69952229, 17.80589790
7.81664890, 4.43846820, 2.95803989, 6.51344763, 41.96278113, 25.58661760, 17.50714140, 19.18984106
7.52828002, 4.03112887, 3.11046620, 6.23498196, 34.09472100, 26.40312482, 19.63542717, 18.24760258
6.17251974, 3.13049517, 3.02902625, 5.82022336, 25.76722725, 22.74148192, 16.26576159, 13.42199687
5.68330890, 3.23651047, 2.68328157, 6.49615271, 28.68710512, 20.57304061, 10.12546295, 12.41269511
5.69649015, 4.20713679, 3.24422564, 6.81175455, 32.01562119, 21.94766502, 12.95376393, 16.26422454
5.31036722, 4.18031099, 3.80131556, 8.01093003, 36.57663188, 24.53110271, 15.71066517, 17.15663137
4.75394573, 4.85025773, 4.01870626, 8.44689292, 44.97693854, 28.69276912, 16.54312546, 20.84466359
4.69574275, 4.81923230, 3.72827038, 7.28354309, 41.28437961, 33.63740478, 18.19477947, 21.04756518
4.42718872, 4.44971909, 3.74499666, 7.21976454, 30.16993537, 29.18090129, 18.99276178, 16.89526561
4.92442890, 4.48051336, 3.72827038, 7.58946638, 30.24276773, 26.44380835, 18.55869069, 16.80178562
5.58345771, 4.38463225, 3.93382765, 8.44541296, 33.53691995, 31.09059343, 15.33541653, 16.44308365
5.19615242, 4.57711700, 3.75832409, 8.70775516, 33.94370339, 29.23653536, 16.14156126, 16.51590143
4.54422711, 4.21010689, 2.76134025, 7.32120209, 40.14286985, 31.23259515, 19.25876424, 14.55850267
4.44690904, 4.03422855, 2.79732015, 7.11688134, 40.32338031, 37.54697058, 21.94595635, 14.94071618
4.28369000, 4.59619408, 2.97069016, 6.94442222, 36.04823158, 38.50259731, 23.71602834, 16.74440205
4.38748219, 4.87339717, 3.68103246, 6.52303610, 38.01710142, 32.59409456, 20.19529648, 14.00892573
5.05964426, 5.33853913, 3.73831513, 6.93721846, 35.28739152, 31.87357840, 20.29408781, 12.32781408
5.21775814, 5.69429539, 3.89551024, 7.00892288, 35.44996474, 39.51676859, 21.13054661, 16.59743956
5.38748550, 5.39675829, 3.73831513, 6.31664468, 32.44225640, 38.06146345, 19.56016360, 17.57128339
5.30094331, 5.34555890, 3.02489669, 5.14052526, 40.01468480, 30.83626112, 21.20141505, 12.81893131
5.08674749, 5.64136508, 3.42417873, 5.25119034, 40.72437845, 32.74217464, 20.14882131, 10.61838029
5.05470078, 5.55427763, 3.49642675, 6.53069675, 35.01356880, 34.82886734, 18.64336343, 13.06522101
5.59910707, 4.70106371, 3.42052628, 6.98032951, 35.01035561, 31.33089530, 17.32050808, 14.28198166
5.98331012, 4.45252737, 3.06594194, 7.64362479, 31.51705887, 29.96664813, 15.80189862, 14.38662573
6.02079729, 4.59347363, 2.68793601, 6.71006706, 30.77864519, 25.33179820, 16.32023284, 12.08925142
6.46142399, 5.57673740, 3.42052628, 5.65022123, 30.20430433, 26.72826220, 16.96761621, 13.38936145
6.55743852, 5.64579490, 3.87943295, 6.58976479, 30.11810087, 35.10341864, 21.32017824, 18.22086716
6.17454452, 5.03239506, 3.47850543, 6.12780548, 30.92935499, 35.28668304, 21.06418762, 22.60530911
5.87792480, 5.20096145, 3.22490310, 6.01664358, 29.83119173, 33.03747872, 16.78764427, 21.03687239
6.41677489, 5.16962281, 3.79802580, 7.60591875, 33.19224307, 31.21658213, 14.99416553, 17.02645001
6.29483916, 5.54301362, 3.71819849, 7.03562364, 34.01323272, 27.90206086, 14.93402156, 16.35542723
5.47950728, 5.55652769, 3.30151480, 5.47265932, 28.75717302, 31.10184882, 16.26729848, 11.86275685
5.62138773, 4.52769257, 3.14245127, 5.86941224, 31.80841084, 30.13843062, 17.77076250, 9.00694177
5.39444158, 5.39675829, 2.98747385, 5.64800850, 33.93854741, 25.29624478, 16.70703445, 13.13868334
5.39907399, 6.34625874, 3.13448560, 5.63249501, 37.60252651, 34.70842837, 16.64331698, 14.63215637
5.69429539, 5.17928567, 3.42417873, 5.80301646, 36.60942502, 40.10361580, 17.16828471, 12.32477180
5.77494589, 4.80104155, 3.25960120, 6.10737259, 37.59122238, 41.06062591, 15.22251622, 10.98863049
5.97703940, 5.42678542, 2.72946881, 5.74456265, 40.76058145, 40.60511052, 23.89403691, 9.22632104
5.07690851, 4.75394573, 2.66926956, 6.95701085, 45.82466585, 35.10199425, 27.20110292, 14.33352713
5.74891294, 5.08428953, 3.36897611, 7.07283536, 44.24166588, 34.61466452, 20.83686637, 16.55974034
6.23698645, 6.09918027, 3.67763511, 4.87339717, 32.99015005, 33.60840669, 17.83746058, 12.39455526
6.14003257, 5.45664732, 3.62284419, 7.15017482, 33.87809026, 32.78643012, 18.98025290, 11.79724544
6.20886463, 5.31977443, 3.91152144, 9.41806774, 35.42386201, 42.65735575, 18.53442743, 13.31446582
5.40601517, 4.73286383, 3.58120092, 7.42798761, 30.40559159, 41.09501186, 16.50000000, 12.12950947
4.96739368, 3.80788655, 3.17411405, 5.20096145, 32.33805807, 31.64411478, 19.05846269, 12.60952021
4.83218377, 4.73814310, 3.09434969, 5.76194412, 38.79110723, 29.46650641, 22.18783450, 13.64001466
5.57225269, 5.21056619, 3.32415403, 4.94469413, 40.68814324, 25.45633516, 19.72181533, 12.86079313
5.89279221, 5.17204022, 3.80460248, 5.71182983, 37.50999867, 25.95380512, 18.18103407, 11.95303309
5.95608932, 5.25357021, 3.82753184, 6.83739717, 38.86901079, 31.38311648, 18.06239187, 10.83858847
6.07865117, 5.83095189, 3.59861084, 6.34822810, 35.29766281, 36.37134861, 18.22361106, 11.76010204
6.88476579, 6.72867000, 3.21325380, 5.67009700, 22.79144576, 30.53768164, 17.20101741, 11.13889582
7.07990113, 5.98957428, 3.02076149, 6.17049431, 23.85267281, 29.20659172, 16.29186914, 12.13466110
5.80732296, 5.62361094, 3.16227766, 5.93506529, 32.18229327, 41.26105912, 19.15202339, 12.88700896
5.36889188, 5.65906353, 3.35037311, 6.20483682, 40.67585279, 44.38017575, 16.35771989, 12.23928102
6.32850693, 4.66636904, 3.27490458, 5.72494541, 40.28523303, 36.66776514, 10.93046202, 12.31767023
6.08276253, 4.51940262, 2.96226265, 5.95818764, 40.20572099, 29.91822187, 16.64406801, 10.28955781
7.34846923, 5.11370707, 3.55316760, 6.70820393, 47.86935345, 32.68715344, 18.32962084, 7.84856675
9.06090503, 6.65206735, 3.94651745, 6.43428318, 54.19225037, 28.89679913, 14.58423807, 12.07373182
7.04982269, 5.86088730, 3.18590646, 6.74536878, 49.24809641, 26.44286293, 12.46795893, 14.12710161
5.27257053, 5.25119034, 2.50000000, 5.71620503, 37.79351796, 30.59043968, 11.38968832, 11.22051692
6.09302880, 5.29858472, 3.50713558, 5.52720544, 36.90392933, 27.97141398, 12.20040983, 9.40744386
5.35490429, 4.27200187, 3.98434436, 6.17049431, 32.92795165, 25.27152548, 14.22761400, 11.55638352
4.62331050, 5.18169856, 3.96232255, 7.03740009, 32.97233689, 26.26594754, 12.61249381, 12.57477634
4.87083155, 5.70526073, 4.09267639, 7.29211903, 37.07256398, 28.12827759, 11.10067566, 12.14598699
5.23211238, 6.19475585, 3.73162163, 6.00624675, 38.30078328, 26.16295090, 19.04008929, 12.01145287
5.41987085, 5.90338886, 3.18590646, 6.02079729, 42.62217733, 24.59420663, 19.57932583, 12.87439319
4.88108594, 5.67890835, 2.95803989, 6.70074623, 39.41478149, 23.52604939, 15.63089889, 11.76754010
4.98748434, 5.58569602, 2.95803989, 6.76941652, 39.64687882, 21.07308710, 16.13613956, 10.31382567
6.60302961, 5.68110905, 4.02492236, 6.68206555, 42.48411468, 24.91033922, 13.99106858, 11.12317401
7.54155156, 6.82825014, 3.97492138, 6.61815684, 38.75951496, 24.43972177, 16.21187836, 10.36219089
6.48652449, 6.24299608, 2.99583044, 7.21283578, 36.46368056, 26.74415824, 17.12527372, 10.25792377
4.51663592, 4.51940262, 3.24807635, 7.47663026, 32.33921768, 29.12430257, 15.31012737, 11.27608088
4.50000000, 4.45533388, 3.23264598, 6.87568178, 35.58862178, 23.87205479, 16.29340357, 12.11197754
5.44518136, 6.36592491, 3.85032466, 6.31268564, 33.71794774, 26.63127860, 16.50303002, 13.57203006
6.32653144, 6.32653144, 3.65376518, 6.14410286, 28.55652290, 30.67531581, 17.14569917, 13.35664629
8.94706656, 8.22800097, 3.38747694, 6.34034699, 28.04995544, 26.14909176, 16.93147956, 9.95113059
8.92888571, 8.59360227, 3.22490310, 5.91819229, 32.26220699, 27.95263852, 16.58312395, 7.13967786
6.90470854, 6.17251974, 2.56417628, 4.90153037, 31.56699225, 30.70504844, 17.27570548, 7.13617545
6.68019461, 7.02495552, 2.72946881, 5.04232089, 29.74474744, 28.68536212, 16.69281282, 7.85493475
6.23498196, 7.43303437, 2.86792608, 5.72931060, 35.12798030, 32.88122565, 14.40399250, 11.01589760
6.25699608, 6.15020325, 3.11448230, 8.80482822, 42.06928809, 32.05893011, 14.31607488, 12.50599856
7.29383301, 6.38748777, 3.93382765, 9.21954446, 43.11844153, 25.31353393, 14.45683229, 10.82474018
7.15017482, 6.68954408, 3.66742416, 6.65394620, 33.43837616, 21.40911021, 16.11986352, 8.51762878
5.36423340, 5.24880939, 3.10241841, 6.42650761, 33.48917736, 28.60506948, 16.64632091, 7.87400787
4.68774999, 4.75657440, 3.17804972, 6.95880737, 35.15572500, 29.95955607, 15.26269963, 8.86143329
5.10147038, 4.70106371, 2.50000000, 6.86112236, 31.45433198, 27.43036638, 14.15273825, 9.62159031
5.28913982, 5.54075807, 3.13448560, 6.62947962, 31.24019846, 26.53346943, 11.38529754, 8.89241250
5.79439384, 5.28441104, 3.38008876, 6.45755372, 30.10274074, 19.70532923, 11.06797181, 8.69338829
5.22254727, 3.61247837, 2.76134025, 5.19855749, 29.52117884, 20.59550922, 10.79699032, 9.24662100
6.50384502, 3.04548847, 2.70647372, 4.30697109, 32.60138034, 23.84533497, 11.01135777, 10.44748774
7.26291952, 3.47491007, 2.83725219, 5.03984127, 40.64664808, 22.54828153, 10.69228694, 12.78084504
5.67670679, 4.52769257, 3.22490310, 5.88005102, 41.76721202, 20.62946921, 18.36572895, 13.40988441
5.46122697, 5.00000000, 4.15932687, 7.09224929, 36.62990581, 19.45314885, 20.36541185, 13.16149688
5.97703940, 5.05222723, 4.31856458, 8.59069264, 35.82910828, 21.93000228, 13.48517705, 12.87924687
5.55202666, 4.62331050, 3.46410162, 7.47161295, 35.18415837, 27.25068806, 13.67205178, 11.40613870
4.44409721, 3.81116780, 2.61247010, 5.63471383, 33.15607033, 28.20460955, 12.68759236, 11.09053651
4.72228758, 4.62331050, 3.39484904, 7.22668665, 36.05516607, 27.50045454, 15.62769977, 12.12538659
5.95189046, 5.70964097, 4.03422855, 7.20069441, 42.15862901, 36.26878823, 21.57718703, 11.15235401
6.24499800, 5.37819672, 3.43511281, 6.47495174, 40.94722213, 37.15474398, 19.62269095, 10.73079680
6.32653144, 4.97744915, 3.02902625, 6.35413251, 43.65718727, 35.84619924, 13.72497723, 12.38648457
6.08481717, 5.61471282, 3.30907842, 5.78575838, 42.01934078, 36.58927438, 15.41184609, 12.08614910
5.36889188, 5.83952053, 4.50555213, 6.98212002, 34.05913974, 28.14027363, 17.51356617, 12.28515364
5.97494770, 6.15223537, 4.37321392, 7.83262408, 32.24554233, 24.13917977, 19.61950560, 13.32478893
5.14538628, 6.76017751, 3.64005494, 7.05691151, 34.56334764, 31.97225360, 22.71783440, 11.75478626
5.15509457, 5.63249501, 3.98748041, 7.34166194, 44.00823787, 36.36859909, 23.51860965, 12.16963434
5.54526825, 3.97177542, 3.58468967, 6.30476011, 42.07879513, 34.48079175, 21.32897091, 13.46662541
4.65026881, 4.97995984, 3.26343377, 6.10737259, 32.15003888, 34.28994022, 17.09824552, 13.48239593
5.19374624, 4.62060602, 3.13448560, 7.16065639, 34.23959696, 34.50470982, 16.66883319, 11.62862847
9.75320460, 4.56070170, 3.10241841, 6.31466547, 39.91678845, 34.76995830, 19.54290152, 9.04986188
10.76336379, 4.74868403, 3.08220700, 5.63914887, 40.51265234, 42.03361750, 24.50969196, 12.81990640
8.56154192, 4.88876262, 3.64691651, 5.82237065, 33.31516171, 43.33416666, 30.43271266, 13.77406984
7.16763559, 5.27019924, 3.77491722, 6.23297682, 35.94857438, 44.54828841, 29.74642836, 12.97401249
7.33314394, 4.70903387, 3.77491722, 7.42630460, 43.48361760, 48.63794815, 24.02654782, 13.08338641
9.04848054, 5.21296461, 4.19225476, 7.38410455, 41.52559452, 41.19708728, 20.18043607, 12.44789139
10.53802638, 4.67707173, 3.35037311, 5.54301362, 35.99895832, 34.29212738, 16.34395913, 13.53329228
9.87041033, 4.00624512, 2.72946881, 6.79153885, 33.44435677, 34.73830739, 18.45196467, 12.99807678
8.17924202, 4.31856458, 3.12649964, 7.56967635, 33.43688084, 32.75209917, 18.22086716, 12.67477810
8.65592283, 5.12835256, 2.87228132, 5.92874354, 38.79368505, 31.11551060, 18.48107140, 13.30131572
8.71492972, 5.52720544, 2.72029410, 5.94768863, 40.90873990, 32.04215973, 19.30673458, 11.68439130
10.07348003, 5.58793343, 3.12249900, 7.34166194, 39.34558425, 31.96052252, 16.06938082, 10.92474256
12.30954914, 5.49772680, 3.42417873, 6.53643634, 37.88106387, 30.49385184, 19.04730952, 11.27164584
10.62308806, 5.25832673, 3.78813938, 6.21892274, 38.00756504, 29.98332870, 20.16060515, 12.82672990
10.08959860, 4.98246927, 3.93382765, 6.59734795, 38.47174288, 44.48117579, 19.54418072, 16.47877423
10.25426740, 3.85356977, 3.59513560, 7.15541753, 40.83258503, 43.87966499, 18.22155317, 16.34166454
7.69415362, 3.89230009, 4.17731971, 8.81334216, 35.40621414, 31.12434738, 14.99749979, 14.15362144
8.46610891, 4.34165867, 4.26321475, 8.63133825, 38.76531955, 28.70888364, 17.30462366, 12.74166394
9.21004886, 4.18330013, 3.68103246, 8.05605362, 43.08276918, 26.48065332, 17.29523056, 13.91312330
8.68187768, 3.89230009, 3.52136337, 8.11326075, 32.60253058, 37.06919206, 15.24385122, 15.25450753
8.10401135, 4.23379263, 2.91547595, 6.42066975, 29.28864968, 38.77595905, 16.78689965, 15.44182632
8.09629545, 4.53045252, 3.23264598, 5.82237065, 31.38152323, 32.89832823, 17.43272784, 13.87443693
8.24014563, 4.64219776, 3.52491135, 6.52686755, 38.34644703, 35.84898883, 18.37457483, 13.91402170
9.13646540, 5.84807661, 3.01662063, 7.31095069, 37.87050303, 35.89394099, 20.21509337, 14.89546911
11.07135945, 5.82451715, 2.68328157, 6.73424086, 44.97693854, 30.45447422, 17.24456436, 12.61348485
9.95113059, 4.19523539, 3.20546408, 6.56315473, 46.75735236, 29.54572727, 13.36693682, 14.26446634
8.01405016, 4.18031099, 3.67423461, 7.48999332, 36.77193223, 34.00367627, 15.57401682, 17.20247075
9.11454881, 5.28204506, 3.60901649, 7.91991162, 32.25755725, 35.58089375, 24.81078395, 17.39037090
10.22252415, 5.52720544, 3.20936131, 7.46826620, 34.83173840, 34.59407464, 25.61298499, 13.60238950
9.89065215, 4.82700735, 2.53475837, 6.10941896, 44.71548949, 32.12203294, 17.50642739, 8.88678795
8.40089281, 4.81923230, 3.36897611, 9.21683243, 43.42148086, 28.13094382, 16.79583282, 14.32567625
11.00340856, 4.73022198, 3.83731677, 10.01498877, 39.33255649, 31.58164024, 15.82403236, 14.92229875
10.59363016, 4.44690904, 3.46410162, 8.53814968, 39.19024113, 34.56985681, 14.06947049, 14.08988999
9.67858461, 5.62138773, 3.57421320, 9.14740400, 40.76518122, 31.31333582, 16.18486948, 14.58595215
9.76729236, 5.42678542, 3.76164857, 8.47643793, 39.11521443, 26.80298491, 15.28316067, 10.96927527
7.96868873, 4.74078053, 3.55668385, 7.56141521, 34.45794538, 27.27040520, 13.60055146, 11.19486489
8.22952003, 5.06211418, 3.48568501, 7.17809167, 35.82213003, 27.15142722, 15.02497920, 13.00192293
8.14555093, 4.95479566, 3.41686991, 6.33048181, 39.61155135, 30.26094843, 17.31617741, 12.28311850
6.89202438, 5.49317759, 3.32791226, 7.57957782, 41.87630595, 35.01749563, 20.49817065, 12.98556891
6.19273768, 5.67009700, 3.23651047, 7.89620162, 37.16786246, 36.33455655, 22.60862667, 12.86079313
10.72380529, 5.08920426, 3.07814879, 6.76387463, 29.00818850, 35.45066995, 21.54356052, 11.10517897
11.69401556, 4.60705980, 4.31856458, 7.48665479, 28.27631518, 35.48767392, 19.33261493, 11.83849653
8.72926114, 4.90407993, 4.21604080, 6.69328021, 36.61113219, 38.26845960, 16.39359631, 10.25792377
8.48380811, 5.58121850, 3.11849323, 4.33877863, 43.28914414, 32.89794826, 14.35792464, 10.54395561
9.10768906, 5.47494292, 3.21714159, 6.82825014, 42.73435386, 27.88234208, 14.76482306, 11.01135777
7.69090372, 5.72276157, 3.07814879, 7.91359590, 47.34078580, 30.99516091, 14.88119619, 9.89065215
7.49333037, 5.32212364, 3.24422564, 5.90973773, 48.94997446, 32.71735014, 16.27728479, 10.61367043
9.46572765, 5.08428953, 3.50356961, 6.58786764, 45.50576887, 29.24508506, 16.64632091, 10.41393297
8.50441062, 4.84252001, 3.24422564, 7.35357056, 41.23408784, 30.38502921, 14.51895313, 10.44629121
8.17618493, 4.36176570, 3.34290293, 7.37902433, 36.37478522, 31.40740359, 16.02576051, 10.46422477
8.67467579, 4.43565102, 3.40954542, 6.87204482, 45.26532890, 29.06587346, 16.37757613, 10.12793167
10.55698821, 6.40117177, 3.68442669, 7.15891053, 45.32852303, 32.22343867, 16.22343983, 11.11867798
13.10534242, 7.42798761, 3.84382622, 8.83317610, 45.43924515, 33.31140946, 16.28035626, 12.65108691
12.67181913, 8.55569985, 4.82182538, 9.45251289, 47.19586846, 41.83718442, 18.58292227, 12.94990347
11.29158979, 8.35463943, 5.10636857, 8.82468130, 43.52930048, 51.20693312, 23.21368131, 15.27170586
10.54395561, 5.17445649, 3.56019662, 6.87568178, 43.05780998, 44.68668706, 23.51382572, 16.86712779
10.33440855, 5.08428953, 3.38378486, 5.99374674, 38.68946885, 34.19575997, 19.47755118, 13.52774926
10.37665649, 7.00178549, 4.46654229, 7.97025721, 36.96620078, 28.65484252, 15.27088734, 10.46064052
9.32469839, 7.36206493, 4.43846820, 8.76070773, 42.74488273, 28.09626310, 15.72815946, 11.42803570
8.57467201, 6.53643634, 4.54422711, 8.98610038, 44.42690626, 32.76087606, 16.27344463, 12.31361036
8.90645833, 6.07247890, 4.11096096, 8.54839166, 40.51758877, 29.16504757, 19.05452702, 11.43241007
8.18229797, 5.75760367, 3.05368630, 7.56637298, 38.33894886, 31.43246729, 21.49185892, 10.54158432
9.35681570, 5.47037476, 3.26726185, 8.11326075, 37.12276929, 33.79497004, 18.83348083, 10.28591270
9.30053762, 5.98957428, 3.12649964, 7.65669642, 36.95876080, 33.10173711, 15.92953232, 13.54067945
9.34478464, 5.76844866, 3.88265373, 8.27042925, 36.28463862, 33.11495131, 15.82403236, 14.87867602
10.33198916, 6.33245608, 4.17133072, 7.59769702, 33.34066586, 30.79123252, 13.20795215, 14.80371575
10.13903348, 7.14492827, 3.85681216, 5.78791845, 35.39067674, 29.06716360, 12.96148140, 15.98202115
10.97838786, 6.24699928, 3.85356977, 6.60113627, 40.94172688, 29.47159650, 13.56189515, 14.01338646
11.71217315, 5.65022123, 3.79473319, 7.69252884, 39.71145930, 32.61747998, 13.24481030, 18.52025918
11.35011013, 5.96866819, 3.82426464, 8.27345152, 33.50261184, 35.51795321, 14.68843082, 19.02235527
9.83615779, 5.82880777, 4.00000000, 8.31715095, 34.20051169, 32.82034430, 15.45962483, 11.97914855
12.27090054, 5.69429539, 4.06201920, 8.21888070, 37.30180961, 23.55843798, 19.13047307, 13.79855065
12.58868540, 5.38748550, 3.94651745, 7.43975806, 34.03013371, 29.06759364, 19.48075974, 20.24475241
9.45119040, 4.90662817, 3.94334883, 6.77310859, 38.08641490, 32.94047662, 14.18009168, 21.41961718
8.82043083, 5.12103505, 3.32791226, 6.22494980, 40.16092628, 30.53317868, 12.18092772, 16.27267649
7.81184997, 5.99166087, 3.22490310, 6.46335826, 42.96830227, 29.93200628, 14.37097770, 16.60798001
7.04627561, 6.28291334, 3.55316760, 7.46324326, 43.12771731, 32.58297101, 18.14111353, 17.98054504
10.62779375, 5.51361950, 3.75832409, 8.71349528, 39.19725756, 40.60203197, 21.91403660, 16.13691420
12.66885946, 6.26298651, 4.06201920, 9.12825284, 40.98322828, 40.73941580, 18.86531208, 17.42770782
10.54751155, 6.06836057, 3.90832445, 8.49705831, 39.48733974, 31.62435770, 14.27585374, 18.74166481
9.69664891, 5.24404424, 3.98434436, 9.76217189, 38.54996757, 31.69463677, 17.31328969, 19.84376476
9.81198247, 6.01040764, 4.20713679, 9.77752525, 44.92799795, 36.27809256, 14.88539553, 22.19966216
10.72613630, 5.79439384, 3.46049129, 7.61577311, 47.04040816, 32.43647638, 12.17066144, 21.01547049
9.84504952, 5.70526073, 3.53199660, 7.01070610, 40.00843661, 27.32489707, 11.84166373, 16.86416319
9.21276289, 6.07453702, 4.04660351, 7.79743548, 33.27874697, 28.84657692, 15.59487095, 14.74788120
10.79467461, 6.16035713, 4.07124060, 8.58778202, 30.94309293, 36.58483292, 20.94576329, 19.05977440
8.70057469, 6.07453702, 3.65718471, 7.85175140, 32.98370810, 35.11267577, 22.00852108, 23.24274080
7.63544367, 5.38980519, 3.04548847, 7.38410455, 28.23295946, 34.02682765, 20.55784522, 19.39007478
9.83234458, 4.73550420, 3.43511281, 7.72172261, 29.85841590, 32.06126947, 18.53240405, 18.05754690
10.35374328, 5.53850160, 3.43147199, 5.98748695, 41.25924139, 25.95476835, 15.52981004, 20.65853335
10.64542155, 5.51361950, 3.94017766, 6.77310859, 40.57493068, 27.93519286, 15.69554077, 19.37717730
9.52102936, 4.53596737, 4.21307489, 8.37555968, 30.36486456, 30.15916113, 18.22704035, 19.00920829
7.72334125, 4.31856458, 3.66742416, 8.74785688, 35.15750276, 30.61086408, 20.47620570, 18.02914307
8.34415963, 5.75325995, 3.27871926, 8.00780869, 45.89471647, 29.09725073, 20.98094373, 15.20937211
9.37816613, 6.03531275, 3.18198052, 6.81175455, 47.52288922, 30.34468652, 15.95227257, 13.79130161
9.17877988, 5.15266921, 3.25960120, 6.78417276, 43.91326679, 30.89862456, 22.76894815, 11.27940601
7.92779919, 4.96487663, 3.38747694, 6.21892274, 43.80781894, 30.62596937, 24.92187794, 9.55641146
8.39047079, 4.67439836, 3.26343377, 7.88352713, 42.74722213, 35.83678278, 18.10869957, 13.59043781
9.41939489, 5.05470078, 3.67083097, 9.85646996, 34.29030475, 38.50908984, 15.63569634, 14.19859148
8.76783896, 4.67439836, 3.73162163, 8.72353140, 34.10241927, 35.91726604, 15.29215485, 14.65605677
8.04829174, 5.54075807, 4.21307489, 8.38600024, 41.34368150, 33.62216531, 14.60650540, 15.85402157
9.96744702, 6.28490254, 4.23969339, 8.23711114, 37.01519958, 36.26568626, 13.86452307, 13.40801999
9.53677094, 5.85875413, 3.11849323, 5.99583189, 33.20805625, 37.39518686, 12.50099996, 15.78606981
7.30239687, 5.99374674, 3.70472671, 7.41282672, 38.76467464, 32.93782021, 14.01784577, 16.81368490
8.37108117, 6.33640276, 3.98120585, 9.54856010, 39.89360851, 33.41556524, 16.10279479, 14.45510291
10.87658034, 5.61916364, 3.62629287, 8.24924239, 37.49199915, 28.12694438, 14.14743793, 15.25532694
10.78192933, 4.72493386, 3.90512484, 8.41575903, 37.88733298, 17.71510655, 14.29685280, 14.22761400
9.81962321, 4.88876262, 4.12916456, 10.00374930, 38.73725597, 31.38351478, 16.47194585, 11.64044673
10.70513895, 4.99249437, 4.15030119, 8.19451036, 38.70142116, 34.79008479, 20.81345719, 11.58447237
9.85393322, 5.25832673, 4.58530261, 8.39344983, 42.98807974, 34.76276744, 22.70242278, 12.50899676
10.30048543, 5.98748695, 5.06458290, 10.43791167, 41.41980203, 40.50123455, 20.23054621, 14.39444337
11.33578405, 6.91917625, 4.70372193, 10.94988584, 45.99402135, 39.13374503, 14.65093854, 15.90047169
10.38869578, 6.28291334, 4.21010689, 9.54201237, 47.08449851, 39.03556071, 14.47843224, 18.07138622
9.85393322, 6.27495020, 4.15632049, 8.78777560, 36.92255408, 37.47032159, 18.32825687, 20.63249864
9.34478464, 6.39335593, 3.75832409, 9.27766134, 42.26552969, 35.29553796, 15.34682378, 20.64884985
10.50951949, 5.44977064, 3.89230009, 9.78008180, 53.03418709, 31.46704625, 14.15273825, 17.73837648
10.65363788, 5.05470078, 3.96232255, 10.71797556, 48.42261868, 25.36286656, 15.33541653, 16.32176461
8.19603563, 4.35889894, 3.64005494, 9.60598772, 42.31902645, 33.56784175, 18.68287986, 19.04534064
9.08845421, 4.51109743, 3.24807635, 8.18229797, 41.75344297, 35.60758346, 19.15332869, 17.49857137
12.06441047, 4.65832588, 3.76828874, 7.72819513, 41.00182923, 33.90648905, 14.96579433, 15.18140310
11.59849128, 5.70306935, 4.08656335, 8.24014563, 39.48607349, 36.06417890, 14.36053620, 18.62793601
10.40312453, 5.56102509, 3.97492138, 8.58050115, 39.52277824, 33.41631338, 15.58765537, 23.85214875
11.04875559, 4.12007281, 3.93382765, 7.48999332, 39.69351332, 34.46773854, 14.96829984, 23.33934446
11.12092622, 4.04660351, 2.91118533, 6.14817046, 33.08662872, 31.27738800, 15.70748229, 20.34330357
10.66302021, 4.76445170, 3.63661931, 6.63324958, 43.51206729, 31.57926535, 21.49709283, 20.00374965
10.24329049, 4.76445170, 3.74165739, 7.21110255, 47.30750469, 33.05639121, 19.54482029, 18.93013471
8.27042925, 4.98497743, 3.88587185, 8.64869932, 41.46836143, 30.77986355, 14.86606875, 20.62704535
6.20685105, 5.79223618, 4.15632049, 9.29112480, 43.05258413, 27.46588793, 13.10057251, 17.06385068
8.33666600, 6.02079729, 2.86792608, 8.18077013, 40.15532343, 27.65004521, 20.37277595, 12.00312459
9.27361850, 6.71006706, 3.52136337, 9.26552751, 39.62417192, 38.90694025, 24.39979508, 15.71384740
10.50238068, 6.77864293, 3.97177542, 9.49078500, 40.98963284, 38.45354340, 20.68151348, 16.06004359
10.89265808, 5.43369119, 3.51425668, 8.90645833, 32.93060886, 31.64450979, 17.33637794, 13.97229401
8.74070935, 4.88876262, 3.63318042, 9.18966811, 32.61786320, 31.87161747, 18.11077028, 15.92168333
10.11681768, 5.63693179, 3.49284984, 8.54692927, 39.30394382, 34.47390317, 19.78004044, 16.74962686
11.05554160, 7.29040465, 4.35028735, 9.36749700, 41.83628808, 31.63621343, 16.51892854, 18.13077494
12.07580225, 7.13792687, 4.48051336, 9.82216880, 37.89887861, 29.58124406, 17.43846324, 19.88215280
11.73562951, 6.04979338, 3.34290293, 8.06070717, 34.21037854, 31.04311518, 16.88934575, 16.27344463
7.85175140, 6.94262198, 3.93064880, 7.58781919, 39.39067148, 27.19053144, 15.28397854, 17.24383948
6.46335826, 7.64689479, 4.47213595, 7.60920495, 36.53149326, 29.85548526, 17.84376642, 17.67979072
8.83600589, 6.37181293, 3.78483817, 6.83191042, 32.16053482, 33.49925372, 20.98094373, 18.52363355
9.49736806, 5.23927476, 3.23264598, 6.96060342, 32.92187722, 33.91717854, 20.72860343, 19.06895383
8.00936951, 5.67230112, 3.64691651, 7.97025721, 33.51343014, 34.00918993, 17.43989679, 14.39357496
11.01589760, 5.46808925, 3.83079626, 7.41282672, 34.83066178, 36.66469692, 15.79794290, 17.03012038
10.85357084, 6.23297682, 3.59861084, 6.44398945, 32.60981447, 35.11516766, 16.57784666, 18.39225380
7.37563557, 5.94138031, 3.72491611, 7.15017482, 34.90737744, 30.01624560, 16.54841382, 15.79952531
6.99106573, 4.23083916, 3.43511281, 6.91736944, 37.19542983, 29.57279155, 12.66787275, 15.20361799
9.34612219, 5.47950728, 3.72491611, 7.69090372, 35.15181361, 28.18687638, 9.73139250, 15.72418519
10.41513322, 6.38944442, 3.63318042, 7.20936890, 31.93861299, 30.06659276, 13.09198228, 19.96997747
8.67611664, 4.70106371, 2.72029410, 5.93506529, 29.88979759, 32.14381745, 12.56582667, 21.78818487
8.04518490, 4.03112887, 3.04959014, 7.32290926, 32.76698033, 27.08274358, 9.67341718, 15.67561801
7.50499833, 5.17928567, 3.52845575, 8.15628592, 34.77606936, 24.77448284, 11.03856875, 14.14036775
8.43059903, 5.53398591, 3.36897611, 7.86288751, 30.52826559, 25.01249688, 13.38936145, 19.94116346
9.15969432, 5.34789678, 3.56721180, 7.26636085, 31.34086789, 30.06700850, 17.09824552, 21.05765894
10.83858847, 5.65243310, 3.62284419, 7.15017482, 38.24918300, 35.27747156, 17.71087237, 17.32916617
11.31370850, 5.57000898, 2.82400425, 7.27323862, 41.12784945, 30.78067576, 16.92704936, 20.40771913
9.21276289, 4.96235831, 2.61725047, 7.57627877, 42.10166268, 31.72262599, 15.41671171, 24.48315748
8.18077013, 4.75657440, 3.43874977, 7.68927825, 35.78756767, 32.97953911, 13.57571361, 20.92367081
9.18422561, 6.37965516, 3.66060104, 7.34506637, 28.26349235, 28.47498903, 16.99485216, 17.09970760
9.95364255, 7.23705741, 3.25192251, 6.47495174, 28.87862531, 33.22273318, 18.46753909, 15.82877127
8.53229160, 5.34088008, 3.38008876, 6.31664468, 32.17413558, 38.71143242, 18.01318961, 14.12798641
7.40101344, 5.06705042, 3.53199660, 6.99821406, 34.88445212, 35.74318117, 19.19309772, 20.11902085
8.91627725, 6.87749955, 3.48568501, 7.19722169, 36.18045052, 28.09003382, 17.91647287, 23.82645588
11.51629281, 5.92452530, 3.04548847, 7.34506637, 33.05034039, 23.85005241, 19.03943276, 18.56205808
11.02270384, 6.13799642, 3.18590646, 7.17286554, 30.00624935, 26.60639021, 18.04023281, 18.47904218
9.39680797, 7.30753036, 4.11400049, 8.09629545, 42.56289464, 27.16155371, 13.63726512, 16.56351412
9.47496702, 7.15541753, 4.34453680, 9.60338482, 43.42263235, 37.54264242, 16.90931696, 13.79673875
9.07469008, 6.64078309, 4.51386752, 9.19918475, 34.60310680, 43.05548746, 18.32962084, 18.98091146
9.39414711, 5.70087713, 4.38463225, 7.64525997, 30.41093553, 36.25844729, 16.69655653, 17.66988964
9.78519290, 5.55652769, 3.46770818, 6.64454664, 29.84166550, 31.17250391, 16.82631867, 16.97203582
8.34715520, 5.20096145, 3.66742416, 8.16088231, 33.37551498, 33.09267291, 16.89304591, 20.16618457
9.07744457, 5.58121850, 3.80788655, 8.56300181, 35.88976177, 32.82110601, 19.13112647, 17.65502761
10.01249220, 6.19879020, 3.75499667, 8.56154192, 35.64758056, 26.56124997, 19.27433527, 17.13184170
12.15935854, 7.52828002, 3.95600809, 8.21583836, 31.03385248, 28.76543064, 18.95059366, 18.51890926
12.15113163, 7.20069441, 3.44238290, 6.36003145, 30.79326225, 33.46005081, 20.15192299, 16.34548867
8.23862853, 4.93457192, 3.72491611, 7.97652807, 32.39405810, 36.27912623, 19.78193620, 20.16432493
8.42911621, 6.42261629, 3.84057287, 8.62844134, 37.89492050, 36.62819952, 16.97350877, 23.96716504
9.75320460, 6.63890051, 3.65034245, 7.00892288, 37.73559328, 32.98219216, 13.42013413, 20.50243888
9.79668311, 5.28677596, 3.42052628, 6.54599114, 29.30912827, 30.39942434, 14.00714104, 17.80870574
9.54463200, 5.15266921, 2.72946881, 6.01248701, 27.86844093, 31.09702558, 12.92284798, 17.37383090
9.30994092, 4.97493719, 3.32039154, 6.73795221, 27.90833209, 32.48692045, 12.84912448, 16.14233564
7.99687439, 5.22015325, 3.63318042, 7.61084752, 33.16963973, 34.36204301, 14.56107826, 22.87083295
8.72209837, 5.16962281, 2.88963666, 6.91194618, 36.59815569, 33.69310018, 16.23037276, 23.83222608
8.66890997, 6.01664358, 3.37638860, 7.50499833, 31.65872707, 36.08185139, 16.89452574, 16.45524233
9.26012959, 6.55553202, 4.04351332, 8.74499857, 30.48811244, 37.64671300, 16.44840418, 13.02305648
9.36749700, 5.69209979, 3.33916157, 7.81344994, 35.75506957, 32.18462366, 16.65232716, 12.69153261
7.11863751, 5.73803102, 4.02181551, 8.28552955, 34.26404821, 32.71085447, 15.67561801, 15.42643834
8.68043778, 6.06836057, 4.57165178, 7.88194139, 32.12203294, 37.07188962, 20.09788546, 20.04370225
11.87013058, 5.92452530, 3.99374511, 6.71937497, 38.48311318, 35.79944134, 22.64398375, 16.62453007
11.53689733, 5.36889188, 3.79802580, 7.25603197, 39.77719196, 30.99556420, 16.08493084, 14.83661012
8.27345152, 5.12835256, 3.20546408, 6.30079360, 34.22535610, 26.65426795, 14.32480366, 18.83613548
10.33440855, 6.01872079, 2.80178515, 6.84835747, 35.21398870, 29.07834246, 18.49189011, 18.80491957
11.31702258, 5.86941224, 3.31662479, 7.15716424, 40.47190383, 32.07374316, 16.70778262, 17.99583285
10.90871211, 5.35723809, 3.79802580, 8.17771362, 43.68352092, 30.11976096, 15.15338246, 21.68178959
9.92093746, 4.64488966, 3.51425668, 7.39256383, 44.21425110, 26.90213746, 17.67696241, 26.69269563
8.75214259, 4.65832588, 3.22877686, 6.20483682, 44.48398588, 26.24928570, 16.91153453, 22.40758800
8.43504594, 4.79583152, 3.26343377, 7.45486418, 47.30221982, 26.29163365, 14.74872876, 17.15735994
7.71848431, 4.65832588, 3.03726851, 8.15322022, 41.75284421, 22.99239005, 15.10297984, 17.76372709
8.68331734, 5.21775814, 3.63318042, 8.52936105, 44.17663410, 26.62235902, 15.62289986, 15.86348007
10.20906460, 5.73585216, 4.12916456, 6.98927750, 43.43472113, 30.30346515, 15.33460140, 15.75991751
10.34166331, 5.82451715, 3.62284419, 6.38553052, 38.00920941, 35.00714213, 12.33592315, 17.67130442
7.87083223, 5.07937004, 3.15832234, 7.62725377, 42.67317659, 36.90392933, 13.78132795, 18.80359008
8.63278634, 5.68550789, 3.34290293, 8.24166245, 35.91935411, 29.75567173, 16.18023486, 20.41016903
9.56164212, 5.75543222, 3.23264598, 8.62988992, 32.90934518, 31.75728263, 15.48305525, 21.76407591
8.66746791, 5.21536192, 3.39484904, 8.21127274, 32.73606574, 37.51799568, 14.08101559, 21.60844742
8.17771362, 5.43139025, 3.69120577, 8.51616111, 36.69434561, 31.68280291, 15.68757470, 19.80214635
8.23559348, 4.61248306, 3.29772649, 8.74356907, 39.06916943, 21.43770044, 15.82956095, 18.32280000
9.51971638, 4.08350340, 3.71819849, 8.84872872, 34.81953475, 23.85529291, 15.52417470, 18.01457743
11.73136821, 5.49545267, 3.72491611, 8.18993284, 38.79658490, 28.52980897, 16.86712779, 16.24884611
11.57475702, 6.27694193, 2.93683503, 6.43234017, 32.19006058, 31.00645094, 13.77134707, 17.54921651
10.15627885, 5.46808925, 3.19765539, 6.55743852, 28.99784475, 27.49272631, 13.71130920, 19.29442925
11.03856875, 4.82182538, 3.52491135, 6.28689112, 37.63807912, 24.49489743, 14.68502639, 20.57668584
10.56053976, 4.57165178, 3.31662479, 6.26498204, 41.38689406, 33.56635220, 15.46851641, 19.54737834
10.31624932, 5.41987085, 3.04959014, 8.30511890, 44.28035682, 34.98714049, 16.78615501, 16.73095933
9.90202000, 6.26298651, 3.12649964, 9.29919351, 41.29315924, 28.31916312, 15.75833113, 16.28112404
10.44868413, 6.28887907, 3.24037035, 7.71038261, 35.43691578, 25.33673223, 12.38648457, 20.08482014
14.16598038, 6.19071886, 3.74499666, 7.38918128, 33.42341993, 30.96570684, 15.43210938, 21.77728174
12.77986698, 5.57449549, 4.02492236, 8.47791248, 35.74248173, 29.60109795, 15.37123938, 17.71510655
8.44541296, 4.72228758, 3.53906767, 7.57462870, 36.44379234, 27.33404471, 12.28718845, 13.16909260
8.57321410, 4.34453680, 3.57421320, 7.70713955, 37.60186166, 29.44613727, 14.65435089, 18.00000000
8.88397434, 5.92030405, 3.37638860, 7.57297828, 38.85711003, 28.22011694, 13.78586232, 21.22675199
8.98331787, 5.99374674, 3.21325380, 7.39425453, 40.13508440, 26.66739582, 16.65683043, 18.00763727
8.15628592, 4.97744915, 4.08962101, 8.70919055, 41.59386974, 25.86986664, 18.88186961, 13.79402044
9.20461841, 5.29150262, 4.30406784, 8.58778202, 36.52738699, 27.74572039, 16.18873065, 11.61679818
10.48928024, 4.96235831, 4.46654229, 8.69482605, 28.58802197, 26.02546830, 15.99296720, 14.52669956
9.85520167, 5.18169856, 3.85356977, 8.23407554, 30.94430481, 24.12933899, 15.66843962, 14.49223930
8.69338829, 5.45206383, 3.06186218, 7.34676800, 35.46512371, 25.77159289, 12.93831519, 17.53068738
7.73142936, 5.32681894, 3.64348734, 9.07882151, 38.53277825, 34.06684605, 13.14629225, 23.08679276
7.09753478, 5.83309523, 3.51069794, 8.96660471, 37.56095047, 33.21897048, 14.09964539, 21.93627133
8.10401135, 6.05598877, 3.37638860, 7.53491871, 36.94184619, 26.03747300, 16.54539211, 19.08467972
10.35857133, 4.91934955, 3.50713558, 7.47997326, 40.33267906, 31.77144945, 20.98034795, 17.38102414
11.83215957, 4.67172345, 3.84057287, 6.76202632, 34.35876890, 31.48054955, 21.73649006, 18.54454098
10.22741414, 4.90153037, 3.85681216, 5.33385414, 29.32660908, 31.40183116, 15.88788847, 17.92902674
8.22040145, 4.97995984, 3.02076149, 5.34322000, 32.91124428, 32.85802794, 11.15683647, 20.52863853
8.75642621, 5.15024271, 3.13049517, 7.08872344, 33.64966567, 35.44855427, 19.79520144, 22.70132155
8.37854403, 5.60357029, 3.42782730, 7.37733014, 35.21327875, 33.52834622, 19.94179029, 17.97706873
8.31113711, 5.94768863, 3.07408523, 6.42261629, 31.41894333, 29.63528303, 18.15420062, 15.73372175
10.84896308, 4.73550420, 3.10644491, 7.35187051, 30.14423660, 31.34485604, 18.32621074, 16.81294144
11.00113630, 3.95600809, 3.09838668, 7.06576252, 34.50362300, 31.65201415, 15.03329638, 15.94521872
7.54652238, 4.23379263, 3.04959014, 6.70447612, 38.76693178, 33.64892272, 15.81613101, 16.92778781
6.62570751, 5.81592641, 2.84165445, 6.97853853, 41.35033253, 32.86753718, 16.14465856, 19.26784887
7.66485486, 6.40507611, 2.81069386, 6.48652449, 35.07064299, 31.28697812, 17.13475999, 17.79466212
7.81664890, 5.67670679, 3.28252951, 6.98391008, 33.38450239, 25.47498773, 14.08811556, 17.78412213
8.16088231, 4.77231600, 3.27108545, 7.11336770, 36.13274139, 22.66164160, 12.42477364, 16.41569371
10.01498877, 4.95479566, 3.27871926, 7.50166648, 38.20929206, 28.68623363, 15.76388277, 17.73978579
10.65833008, 5.68770604, 3.34290293, 6.88658115, 39.20777984, 28.86996709, 16.89304591, 16.65983193
9.90075755, 5.71182983, 3.72491611, 6.80073525, 43.80211182, 28.14782407, 15.80427157, 12.29532431
8.79488488, 5.15994186, 3.77491722, 7.65669642, 46.12157846, 28.67882494, 12.59464172, 14.20563269
12.95472887, 5.25357021, 3.52136337, 7.35187051, 40.61034351, 29.25405955, 15.41752250, 13.12345229
13.24009063, 6.55934448, 3.56721180, 7.94355084, 43.10858383, 31.65675283, 17.29667598, 13.03648726
7.83741029, 6.29483916, 3.34290293, 7.84219357, 43.01627599, 32.28079925, 14.75974255, 18.69692488
7.30239687, 5.32916504, 3.36526373, 7.20243015, 36.92492383, 29.65130689, 14.87363439, 18.72231289
9.24797275, 5.09411425, 3.26343377, 9.03327183, 42.91328466, 30.32202170, 12.83744523, 15.50403173
11.04196540, 4.54972527, 2.75680975, 8.50734976, 42.12392432, 29.77414986, 12.60654592, 16.40502972
10.80856142, 4.28077096, 3.31662479, 6.96419414, 40.49814811, 28.85610854, 12.32274320, 19.45379140
9.03327183, 5.66347950, 3.84382622, 7.21803297, 39.21543064, 27.96515689, 15.04576352, 22.05221077
10.38508546, 5.90973773, 3.31285375, 7.94827025, 40.87939579, 29.72625102, 15.48628425, 19.67803344
11.42803570, 5.67670679, 3.98120585, 9.07882151, 43.00784812, 28.32710716, 13.61616686, 15.32644773
9.98248466, 6.45174395, 4.28660705, 8.54839166, 37.17055286, 26.74789711, 15.55554563, 18.36981219
9.42204861, 6.21288983, 3.36154726, 7.19722169, 32.87552281, 33.79681938, 15.95932329, 20.65550774
8.72782905, 5.04232089, 2.87662997, 6.11964051, 26.55230687, 33.06622144, 14.79019946, 15.30032679
8.60813569, 4.65295605, 3.07001629, 7.55314504, 32.76812476, 26.93557128, 11.79830496, 12.76028997
10.43312034, 4.78800585, 3.04548847, 8.47938677, 35.44467520, 24.02446670, 10.30897667, 15.77894166
9.17469346, 4.85025773, 3.75832409, 8.04363102, 31.21017462, 24.52141921, 11.99166377, 18.73832970
6.60302961, 5.12835256, 4.11096096, 8.17771362, 29.87306479, 20.28607897, 15.00916387, 17.63873578
8.78777560, 5.82880777, 3.65034245, 8.30812855, 29.97540659, 25.40718402, 16.33554407, 12.60654592
9.31530998, 5.81592641, 3.40587727, 8.48969964, 36.10817082, 26.41117188, 20.56817931, 13.59411637
6.85200701, 4.59891292, 4.00936404, 9.66695402, 44.22047037, 30.89134183, 21.69677395, 14.28810694
7.77495981, 4.23969339, 4.23083916, 9.13099118, 41.62541291, 33.86960289, 21.55574169, 16.04914328
7.96555083, 4.69574275, 4.13823634, 7.11336770, 37.66729351, 39.07396832, 21.77670774, 15.16904743
7.77656737, 5.79439384, 3.93064880, 8.08702665, 36.25810254, 39.17429004, 20.98213526, 11.61356965
9.13509715, 7.26808090, 3.39484904, 9.14467058, 33.54064698, 32.35892458, 25.03497553, 12.08614910
10.29441596, 7.09048658, 4.15331193, 10.69111781, 40.74432476, 35.69838932, 22.92433205, 19.31191342
10.29684418, 6.09507998, 3.96547601, 10.39350759, 43.52987480, 39.77153505, 18.97234830, 25.44798617
8.54546663, 5.47950728, 3.56019662, 8.63133825, 39.21096785, 39.16982257, 19.47177444, 20.51523824
8.04207685, 4.73814310, 4.00312378, 7.45150991, 38.95317702, 34.24251743, 18.75433283, 14.79780389
6.45561771, 4.26907484, 3.73831513, 7.79262472, 37.28940868, 34.50434755, 20.01499438, 15.27579785
6.94982014, 5.54752197, 3.87620949, 8.18077013, 36.70933124, 32.34346920, 24.06293831, 17.29739865
10.29320164, 6.09507998, 4.04351332, 6.65394620, 35.37371906, 35.04568447, 24.55453115, 18.82617858
9.77241014, 5.69649015, 3.61939221, 7.05336799, 38.03912460, 33.30127625, 20.77137453, 20.30886506
7.26119825, 6.18667924, 3.66742416, 7.84378735, 40.35622629, 28.95341085, 20.28423033, 20.63189279
9.96493853, 5.72494541, 4.11096096, 8.48969964, 31.59272068, 34.86294595, 20.53655278, 20.86204688
10.13410085, 5.18169856, 3.81116780, 7.71686465, 35.82701495, 40.82921748, 19.08467972, 19.25876424
8.48822714, 5.43369119, 3.30529878, 6.56315473, 41.55658793, 40.03311130, 15.77101772, 17.41479256
9.23173873, 5.11126208, 3.96547601, 7.41451280, 43.92436681, 35.13402909, 13.39029499, 23.22498654
9.26282894, 5.82451715, 4.44690904, 7.88352713, 43.11380289, 31.92021303, 16.14465856, 22.49277662
9.72753823, 7.07283536, 5.06211418, 9.23173873, 32.02850293, 33.99338171, 21.36235006, 21.69792617
11.82370500, 6.36199654, 4.43846820, 9.84123976, 31.56422025, 36.73996462, 22.48833031, 20.71834936
11.34790730, 5.25594901, 2.80178515, 8.32316046, 38.15625768, 31.30335445, 19.07943920, 18.31051610
8.61539320, 8.96521054, 3.48209707, 6.80441033, 44.69228121, 29.77960712, 20.63916180, 21.47847760
7.84219357, 10.54751155, 4.33012702, 7.81344994, 51.28937512, 33.87034101, 21.52730824, 22.57487541
7.65179717, 10.08712050, 4.73022198, 8.14401621, 49.10066191, 35.67597231, 18.88915032, 21.96189883
10.64189833, 13.37348122, 4.73022198, 6.30079360, 35.69313660, 32.70970804, 22.30694959, 17.13913650
10.65363788, 12.47898233, 4.40738017, 6.01040764, 29.35259784, 32.07140471, 27.47635347, 13.98660073
7.10633520, 7.61248974, 3.82099463, 6.30476011, 27.65998915, 33.79570979, 26.38844444, 15.35822255
8.22648163, 11.08151614, 4.33301281, 6.66708332, 20.09912933, 35.90543134, 22.99293370, 12.29634092
8.70775516, 11.48259553, 4.51109743, 7.00178549, 24.81934729, 38.92428548, 20.48352997, 12.41269511
7.25603197, 7.88511255, 3.97806486, 7.10809398, 31.21337854, 38.17689092, 23.43181598, 17.50999714
7.61084752, 6.99106573, 3.74165739, 7.24396300, 36.41359636, 39.44996831, 26.14622344, 18.59300944
9.63197799, 7.88986692, 3.36154726, 6.45561771, 37.07222680, 37.67260278, 23.66960076, 17.80168531
9.58253620, 8.84731598, 3.53553391, 6.80441033, 37.90415545, 29.57532756, 27.67173648, 17.02131017
8.35912675, 11.84483010, 4.49165894, 7.35017007, 39.83967871, 39.01410002, 34.14784034, 20.22313032
10.28105053, 13.66839420, 5.17687164, 7.74435278, 39.75581718, 42.15388476, 32.49038319, 19.50512753
9.69664891, 10.13656747, 4.76969601, 7.69252884, 34.52897334, 37.71935843, 25.63591231, 13.88344338
7.22841615, 7.00000000, 4.20119031, 6.95521387, 30.65207986, 41.64882952, 20.98213526, 15.09470106
6.71192968, 6.49037749, 4.07124060, 6.29285309, 26.62893163, 38.98172649, 20.72980945, 16.82928994
7.88035532, 5.07937004, 3.69797242, 5.71839138, 32.66037354, 38.04668185, 24.58759850, 22.78486340
9.42867965, 5.91607978, 4.14427316, 6.18061486, 36.94286129, 40.66939882, 31.63028612, 24.36544685
7.69252884, 5.70526073, 4.16233108, 6.47495174, 37.03208069, 38.67137184, 30.83220719, 21.39684556
7.66322386, 7.21803297, 3.88265373, 7.05691151, 44.01533824, 34.92134018, 23.92540491, 20.36234269
7.82623792, 7.83102803, 3.92428337, 8.94427191, 40.76671436, 41.68782796, 23.11709324, 18.19546647
6.17251974, 6.97316284, 4.79061583, 8.70631954, 32.08114711, 45.51950132, 27.96336890, 19.14614844
6.46915760, 6.94262198, 5.38980519, 8.36660027, 28.50175433, 42.05561794, 30.44708525, 20.64884985
6.69514750, 6.63513376, 4.73550420, 8.93028555, 32.48268770, 40.91943304, 31.87240185, 20.34760428
5.75108685, 6.23698645, 5.09901951, 8.33816527, 33.67120431, 37.15642609, 30.93380028, 15.62769977
5.01746948, 6.15020325, 5.57673740, 8.17924202, 29.84334097, 42.94676938, 26.98008525, 11.79512611
7.50999334, 8.34565755, 5.79223618, 8.44985207, 37.66828905, 44.43000113, 25.63542471, 15.24385122
9.05676543, 9.69149111, 5.58569602, 8.74785688, 44.17295553, 33.55853096, 29.62220451, 13.27497646
8.70201126, 10.43791167, 4.89897949, 8.16088231, 40.40358895, 36.85376507, 34.45613153, 11.34570403
9.04848054, 9.87674035, 4.41021541, 7.68277294, 40.86746873, 43.35464220, 31.78521669, 16.93074127
9.86407624, 10.13656747, 5.99374674, 8.77638878, 37.40287422, 49.57569969, 28.72107240, 17.18938626
8.31564790, 9.98248466, 6.18263698, 10.27983463, 38.41028508, 47.65920688, 26.56642618, 18.51215817
6.43428318, 8.54254061, 4.89897949, 9.48946785, 43.56862403, 40.14100148, 22.43434866, 19.66214637
6.21087755, 8.79772698, 4.82700735, 10.04614354, 45.29293543, 44.73924452, 21.60729044, 15.27661612
6.74351540, 7.99843735, 4.44971909, 10.72380529, 40.96309314, 41.47017000, 28.63957053, 16.32865579
6.63136487, 6.67083203, 4.04042077, 9.19918475, 33.21144381, 39.92492956, 39.46359081, 15.86584382
6.12576526, 7.79743548, 5.23211238, 8.51028789, 33.91644144, 42.60193658, 38.59209764, 16.14233564
6.43428318, 7.63053078, 5.42448154, 8.39344983, 33.95217224, 38.11331788, 24.84200072, 16.72199151
5.93506529, 6.35806574, 4.64488966, 7.88511255, 36.50821825, 32.85270156, 22.85005470, 15.31502530
6.48266920, 9.36082261, 5.26307895, 8.23255732, 34.53983208, 33.96542360, 28.69625411, 13.61800279
9.26957388, 9.53152664, 5.42678542, 8.93588272, 32.52345308, 34.98392488, 28.60550646, 14.66202578
8.81192374, 7.15891053, 4.16233108, 7.29554659, 31.07973616, 28.19441434, 26.83095228, 19.70025381
7.33484833, 6.80624713, 3.33166625, 5.40138871, 34.47281538, 28.00758826, 27.22636590, 17.52141547
8.64002315, 6.39531078, 4.15030119, 6.92820323, 40.98475326, 29.28053961, 26.06913884, 18.17897137
8.02963262, 5.82880777, 4.82959626, 10.16489056, 45.13341334, 36.09258927, 20.53168283, 22.84020578
7.30239687, 7.90885580, 4.63680925, 10.63719888, 42.60721770, 42.28918301, 18.16314951, 22.17769149
9.00971698, 10.65246450, 4.81404196, 8.25681537, 38.02334809, 37.92591462, 20.31686492, 18.76099678
10.95673309, 11.13103769, 4.56891672, 6.21288983, 38.66005691, 35.59669929, 20.86444344, 19.21392724
9.94861799, 8.74785688, 3.56370594, 6.83922510, 42.25606465, 38.52726307, 18.35892154, 19.65133583
9.38216393, 8.10863737, 4.80104155, 10.96129554, 41.19587358, 32.08270562, 21.89748844, 18.12525862
9.71210585, 8.25530133, 4.80364445, 10.55817219, 36.93677030, 32.85003805, 25.27202010, 16.09891301
10.31746093, 6.88839604, 3.90512484, 8.22344210, 37.11401353, 33.98124483, 19.40296369, 13.61800279
10.27131929, 6.34428877, 3.54612465, 7.96084166, 31.48372595, 33.23740363, 18.25787501, 14.35966573
8.65447861, 7.97809501, 4.23083916, 7.99061950, 43.16306291, 36.66367412, 17.54850421, 16.40198159
7.88035532, 9.37816613, 4.54972527, 8.54254061, 52.46475007, 36.73622191, 18.25855964, 18.04092570
8.57612966, 8.00936951, 3.99061399, 6.86840593, 41.82702476, 39.71932779, 22.33383084, 15.86111598
9.69922677, 7.11688134, 3.75832409, 8.35014970, 35.96074248, 35.68438034, 19.53586445, 18.44789961
9.66436754, 7.37394060, 3.44963766, 9.33005895, 35.37760591, 33.95069955, 20.85125895, 22.92106018
9.33005895, 7.68927825, 4.29243521, 8.94706656, 33.36127995, 33.42528983, 22.20472923, 18.39633116
11.00227249, 7.58781919, 4.17432629, 9.32469839, 41.70161867, 33.23890792, 20.31501907, 12.82965315
18.59032006, 7.60920495, 3.44963766, 10.68644001, 39.45503770, 38.19129482, 19.30220195, 19.63160717
20.75511985, 7.81984655, 3.85356977, 9.91715685, 30.28489723, 34.96927223, 19.91670153, 21.71059649
13.98570699, 6.52686755, 4.13521463, 7.90411285, 41.82074844, 29.00603386, 21.88549748, 17.52070204
9.81707696, 5.74891294, 4.10487515, 7.96868873, 43.33820485, 26.88912420, 18.58494014, 15.20197356
9.44722181, 5.58121850, 4.14728827, 8.20060973, 37.67227097, 31.67254331, 19.37588708, 20.08482014
8.79914769, 5.42678542, 3.68442669, 8.75357070, 41.13635861, 38.41842006, 21.93171220, 20.39852936
9.12825284, 6.79705819, 3.76828874, 8.27949274, 47.53235740, 38.39824215, 22.16190425, 14.43086969
10.11434625, 7.17635005, 4.22788363, 7.17286554, 45.55134466, 34.70482675, 21.05053444, 14.52583905
15.30686121, 6.90289794, 4.05585996, 7.72334125, 43.02441168, 32.92453492, 16.65983193, 14.69183447
16.75261174, 6.06011551, 4.22492603, 8.26286875, 44.24618628, 28.69973867, 15.46690014, 16.65532948
15.90518783, 6.12984502, 4.21307489, 8.22800097, 39.63111152, 25.69581678, 17.51285242, 15.51934277
13.75136357, 6.26697694, 3.77160443, 8.13172798, 39.20235962, 32.22343867, 16.47270470, 9.87294282
10.93617849, 5.29858472, 3.90512484, 7.94512429, 35.16852286, 39.00448692, 19.84565444, 13.05565012
9.87674035, 6.58596994, 4.23969339, 9.34879671, 32.75858666, 43.30762058, 20.11715686, 14.94238937
13.20511265, 7.67626211, 4.33877863, 8.60958768, 34.36058789, 40.56537933, 18.66078776, 12.06441047
14.77328670, 7.55148992, 3.89871774, 6.59355746, 33.70163201, 35.20120737, 22.06637714, 11.30154857
11.27386358, 7.71848431, 3.50356961, 6.85383105, 36.30289245, 34.44016550, 24.13814409, 12.98556891
9.32201695, 6.73238442, 3.82753184, 7.12916545, 40.32214032, 33.75055555, 20.77137453, 12.66096363
8.76926451, 5.64136508, 3.75499667, 7.56802484, 37.10188674, 29.26516701, 14.76312975, 15.24959016
8.74642784, 5.18893053, 3.40220517, 6.75277721, 32.64429506, 25.38355767, 20.41078146, 15.27579785
8.96242155, 4.63680925, 2.82400425, 5.64579490, 31.92295412, 34.61177545, 24.86161700, 12.34908904
8.69482605, 5.23927476, 2.99165506, 7.54320887, 33.10551314, 34.91095817, 25.47547841, 10.35374328
7.14317856, 5.40601517, 3.83079626, 8.63712915, 36.40501339, 30.58063112, 23.77235790, 10.38508546
6.56315473, 5.00249938, 4.04351332, 10.07472084, 40.58263175, 37.03714352, 20.38749617, 12.37234820
7.60098678, 4.82441706, 4.07430976, 9.74551179, 44.26426324, 35.68192820, 16.27882060, 13.52220396
7.39425453, 5.49545267, 3.90512484, 8.80766711, 45.66180023, 33.50783490, 24.26520142, 12.53096166
5.94768863, 6.57267069, 4.05277683, 10.40552738, 42.26966998, 41.02499238, 30.47909119, 10.56290680
6.31070519, 7.35866836, 4.28660705, 10.52734534, 36.00312486, 38.48343800, 30.58757918, 12.53694540
8.08084154, 7.99218368, 4.59619408, 10.03867521, 37.90778284, 31.38749751, 27.27590512, 13.26084462
8.40535544, 7.31778655, 4.84767986, 9.90580638, 44.26991077, 31.92882710, 20.25648044, 12.77595398
8.62844134, 7.84059947, 4.08656335, 8.67611664, 43.67808375, 31.66741227, 19.11805429, 11.96557562
8.15628592, 7.39087275, 3.77822710, 8.61539320, 37.11367672, 31.78600321, 19.96809956, 11.68546105
7.90727513, 5.68330890, 3.79143772, 9.35948717, 38.56196312, 29.82993463, 21.32662655, 13.92120684
8.15322022, 6.57837366, 4.17731971, 10.03369324, 37.59088985, 32.33805807, 21.97669220, 12.49399856
6.91556216, 7.59605161, 4.29534632, 8.87693641, 34.51630050, 36.85953065, 22.23848016, 8.98331787
7.89461842, 6.43234017, 3.75832409, 6.87204482, 38.43826219, 32.68256416, 20.45299489, 8.70201126
8.23711114, 4.38463225, 3.42417873, 6.69141241, 37.18097632, 24.09979253, 14.84334868, 8.44985207
6.62947962, 5.31507291, 3.35037311, 6.63890051, 33.72869698, 23.88514182, 14.59880132, 9.51577637
8.08084154, 5.01996016, 2.97909382, 6.80808343, 35.42068605, 25.16197528, 17.11505186, 12.85398771
11.25388822, 4.56891672, 3.51425668, 7.20069441, 39.08292466, 24.12571242, 17.74753504, 13.17478653
10.09455299, 4.84252001, 4.44690904, 8.40386816, 39.43253733, 22.40145085, 15.28970242, 11.13889582
9.98874366, 5.25832673, 4.79583152, 11.47497277, 44.65870576, 27.19788595, 15.67322558, 12.40564388
11.41709245, 5.30330086, 4.66904701, 11.79512611, 43.23569127, 33.13231051, 20.09788546, 13.85821056
9.06090503, 6.03945362, 4.53596737, 10.83512806, 42.53028333, 30.73271872, 18.93607668, 15.41184609
8.37705199, 6.62759383, 4.39602093, 10.70513895, 55.08765742, 27.23325173, 18.00555470, 15.11208126
8.19298480, 5.20576603, 4.23379263, 9.08845421, 48.81239597, 29.94787138, 18.26814167, 13.66747965
7.32290926, 5.85448546, 4.66904701, 10.60778016, 35.27038418, 31.04512844, 20.70990101, 11.72710535
6.79153885, 6.62382065, 4.09878031, 9.58514476, 36.00694377, 28.92965606, 24.19555744, 13.35758212
6.02079729, 6.05392435, 3.59861084, 8.09629545, 31.77066257, 31.98124450, 19.59655582, 13.78404875
6.47495174, 5.44288526, 3.78813938, 8.30210817, 38.53991437, 36.63092955, 14.01071019, 11.77603499
6.59734795, 4.92950302, 3.69120577, 8.25075754, 40.10112218, 32.62054567, 17.20247075, 12.34908904
5.26782688, 4.42436436, 3.34664011, 8.45872331, 37.06076092, 25.78904806, 17.91577517, 9.58384057
8.04363102, 3.29013678, 2.94533530, 7.26980055, 40.70534363, 25.62371948, 16.20493752, 9.26012959
9.41408519, 4.29243521, 2.83725219, 7.05691151, 38.74241861, 31.39904457, 19.17680891, 11.59525765
6.95521387, 5.92452530, 3.22877686, 6.49230314, 38.85968348, 31.51428248, 22.83637449, 11.61141680
8.72782905, 5.88854821, 3.37638860, 7.02139587, 45.35609110, 27.05780848, 19.71737812, 11.14338369
9.07469008, 4.70372193, 2.75227179, 7.38241153, 39.84093372, 28.13405410, 15.83824485, 10.42592922
6.70261143, 3.81772183, 2.48997992, 6.63513376, 28.64349839, 29.35472705, 20.11591410, 10.36339713
5.85448546, 4.59891292, 3.23264598, 6.86112236, 43.27268191, 26.47215518, 19.34941860, 11.18704608
5.58345771, 4.99249437, 3.62973828, 7.29383301, 50.64039889, 25.57782242, 16.71152297, 12.79159881
7.81024968, 4.72757866, 3.47850543, 6.96598880, 42.30366414, 25.40521600, 20.89437723, 13.73954148
8.05605362, 4.59619408, 3.25576412, 6.53452370, 36.92661642, 29.36068800, 19.30802942, 11.15907702
8.55862138, 4.21307489, 2.83725219, 6.29682460, 34.22024255, 30.02415694, 16.42102311, 11.58015544
7.93725393, 3.79143772, 2.72946881, 6.18869938, 27.00925767, 32.15859139, 19.91293549, 12.61843889
6.42066975, 3.84057287, 3.52491135, 6.40702739, 27.61385522, 36.77431169, 20.95948473, 11.09279045
8.28100235, 4.00000000, 3.57421320, 7.78460018, 32.59102637, 32.28389691, 22.73213584, 11.27275477
7.49499833, 4.35315977, 3.40587727, 8.93308457, 34.56913363, 28.60769127, 22.44716018, 11.42912945
7.81504958, 4.63141447, 3.85032466, 8.28552955, 38.12184413, 29.37175514, 19.54226190, 11.93628921
8.52203027, 4.08656335, 4.34453680, 8.49705831, 39.25812018, 28.90198955, 16.63505335, 11.61572210
6.91013748, 4.00312378, 3.96547601, 8.69482605, 35.07670167, 27.98615729, 16.04291121, 13.42944526
5.32916504, 3.89871774, 2.85482048, 7.46659226, 32.75248082, 35.85317280, 17.56274466, 13.73135099
6.12780548, 4.46934000, 3.89551024, 8.24621125, 39.18418048, 36.89749314, 16.86712779, 10.14765983
6.26498204, 4.28369000, 4.26028168, 9.43133077, 38.86933238, 29.77792807, 18.77431756, 9.11180553
5.86088730, 3.28633535, 3.33541602, 9.13646540, 37.26056897, 32.12786952, 22.37576814, 10.97724920
7.03917609, 4.12310563, 3.12249900, 7.42293742, 41.08923217, 36.01631575, 22.27217996, 11.26720906
8.08238826, 5.27257053, 3.56721180, 7.15891053, 45.81238915, 35.69908962, 20.52437575, 10.38989894
8.81334216, 5.12591455, 3.84057287, 7.53325959, 45.34809809, 34.04004994, 19.00526243, 9.95489829
10.62426468, 4.50832563, 3.61939221, 6.76572243, 37.78028586, 32.37089742, 26.99722208, 12.58669933
11.31923142, 5.42448154, 3.61593695, 7.56141521, 37.40655023, 31.65240907, 28.90977343, 16.11055555
8.31414457, 5.99583189, 3.28633535, 7.93095202, 35.77429245, 29.71699850, 21.03449548, 14.07391204
7.03029160, 4.93710441, 3.04548847, 8.14248119, 32.91845987, 28.69756087, 17.49428478, 10.21640837
9.35547968, 4.62331050, 3.88908730, 8.26438140, 31.62238131, 32.06165935, 17.42125139, 10.78424777
9.06642157, 5.02991054, 3.94651745, 8.35463943, 31.87240185, 29.29377067, 24.71183927, 11.60064653
7.37563557, 4.89642727, 3.18982758, 7.43135250, 30.29315104, 29.72709202, 24.86010861, 12.19118534
7.13091859, 4.34165867, 3.63661931, 7.18679344, 33.93044356, 36.09293560, 17.57270611, 11.33578405
5.82451715, 3.53553391, 4.00936404, 8.29457654, 38.78466192, 30.90590558, 22.63238830, 11.26720906
5.82022336, 3.66742416, 3.29772649, 8.23255732, 37.92031118, 24.10757142, 23.95464464, 13.88074206
8.29909634, 4.48330235, 3.27871926, 8.48969964, 42.62041764, 25.94368902, 21.42311835, 15.51289786
7.31095069, 4.71433983, 3.61247837, 8.86848352, 42.71358098, 23.58230269, 18.37661558, 13.85911253
6.11555394, 4.27492690, 3.48568501, 8.59941858, 35.69523778, 26.08256122, 15.44425460, 12.54392283
6.01248701, 4.03112887, 3.08625987, 7.39087275, 37.18702731, 31.53450491, 20.71593589, 12.01977537
3.77822710, 4.16233108, 3.36897611, 7.06399320, 41.83150726, 31.81234037, 26.36806781, 10.87658034
3.86328875, 3.89230009, 3.36897611, 7.55314504, 39.48512378, 29.17404669, 26.01153590, 11.22385852
3.48568501, 3.61593695, 2.51992063, 6.32850693, 34.63271575, 24.82740421, 18.20508171, 9.53808157
2.75227179, 3.56370594, 2.80624304, 6.00624675, 33.06886753, 25.31155862, 17.47927344, 9.74166310
3.40587727, 3.00832179, 3.22102468, 6.99285349, 32.64888972, 22.12464689, 17.44348016, 11.19374826
4.58802790, 2.79284801, 3.44238290, 7.81984655, 32.67912178, 19.14288380, 17.25543393, 11.35561535
5.02244960, 3.32039154, 3.65376518, 7.75080641, 29.67195646, 22.82761486, 22.22442350, 11.80042372
4.98497743, 3.43511281, 3.69459064, 8.42318230, 35.02927347, 21.85177338, 21.70080644, 10.86623210
4.34453680, 3.20156212, 3.69797242, 8.35314312, 36.02603225, 23.28840913, 20.04370225, 12.18503180
5.44977064, 4.20416460, 3.65034245, 7.03029160, 38.28250253, 32.68179922, 25.55092953, 12.15833048
7.60756203, 6.35806574, 3.85681216, 7.67789034, 44.36073714, 42.55232074, 36.53867814, 10.63954886
7.96241169, 7.28868987, 3.97177542, 6.85200701, 38.68203717, 40.15065379, 37.84540923, 14.27147505
6.92639878, 6.50384502, 4.44690904, 6.42650761, 35.94405375, 37.69117934, 30.61372241, 14.56708619
6.09713047, 6.55171733, 4.66100847, 7.79422863, 39.79761299, 35.06672212, 29.64413939, 11.89852932
7.52329715, 8.03585714, 4.83218377, 8.40535544, 41.97648151, 28.80668325, 31.56303217, 11.79936439
8.11326075, 8.77781294, 4.30116263, 7.89936706, 40.20447736, 30.14755380, 28.89723170, 11.25166654
6.32653144, 7.41114026, 3.60901649, 7.60591875, 45.01166515, 27.07397274, 27.14590208, 8.69051207
5.22494019, 6.42845238, 4.14427316, 7.60427511, 44.18653641, 24.83596183, 25.19027590, 13.92210473
5.14295635, 7.53989390, 4.73022198, 7.52495847, 35.87304002, 30.56795708, 25.59296778, 20.78641383
6.87931683, 6.90651866, 4.20416460, 7.41451280, 39.87950601, 34.91990836, 24.92538866, 21.53659676
7.23360215, 5.95399026, 3.61939221, 8.06535802, 41.84793902, 34.71419018, 20.62704535, 17.91717054
7.02139587, 6.88476579, 4.60434577, 8.15015337, 32.15392667, 33.92270626, 20.29963054, 13.96155435
6.55171733, 6.36985086, 4.39317653, 8.07774721, 21.66217902, 26.17011655, 18.55060646, 11.19933034
5.43829017, 5.57673740, 3.59861084, 8.01872808, 26.51509004, 20.09726350, 19.23213457, 12.36426302
7.59111323, 5.53624421, 3.87943295, 7.95141497, 35.63670860, 26.31396967, 19.85887711, 20.80805133
7.32290926, 5.65464411, 3.97177542, 7.78299428, 38.18605767, 26.71001685, 18.03815401, 19.41198084
6.31466547, 5.56551884, 3.44963766, 6.58596994, 38.58723882, 26.53629590, 18.15144622, 15.52336948
6.16441400, 5.31742419, 3.34664011, 7.96241169, 37.99539446, 27.95353287, 19.24253102, 17.64369576
5.80947502, 6.17656863, 3.69459064, 8.43208159, 31.99023288, 26.18539669, 15.37855650, 12.26478699
6.44010869, 5.98539890, 4.00624512, 8.06070717, 32.01835411, 27.26123622, 12.87730562, 10.43431838
6.02909612, 5.97285526, 4.00936404, 6.84470598, 33.17114710, 25.02648597, 15.21923126, 11.98332174
5.15266921, 5.74673821, 3.79802580, 6.38944442, 33.04012712, 26.23023065, 14.41526968, 11.13552873
5.29150262, 5.20816666, 3.95600809, 7.91833316, 33.48320475, 29.68417087, 12.52697090, 10.71914176
5.43599117, 5.44747648, 3.81444622, 7.83900504, 35.81933835, 28.46357321, 16.49090659, 9.97872737
5.28441104, 5.28441104, 3.20936131, 6.97137002, 38.99006284, 25.86310113, 17.59971591, 10.61602562
5.58121850, 5.50000000, 3.22102468, 7.30410843, 39.07876661, 22.23566954, 15.17563837, 12.94893818
5.32212364, 5.17928567, 3.04548847, 6.76941652, 34.31799819, 18.96180371, 12.48499099, 13.85911253
4.79061583, 5.47265932, 3.86652299, 8.26438140, 32.13370505, 17.54280479, 15.60128200, 12.82770439
4.26321475, 5.05717312, 3.98120585, 8.42466617, 35.29624626, 18.11422093, 18.66480645, 11.21605991
4.57711700, 3.76164857, 3.16622804, 6.16846821, 35.16816742, 20.41812920, 15.20772830, 8.53668554
4.90153037, 3.44601219, 3.29013678, 7.37733014, 36.02637922, 27.28690162, 13.73135099, 11.15571602
4.72757866, 4.83735465, 3.42782730, 6.82641927, 33.50037313, 26.00336517, 13.53606294, 14.20827224
4.02492236, 5.29386437, 3.69459064, 7.73304597, 27.26307026, 18.29685765, 10.40552738, 11.91847306
5.55652769, 4.12310563, 3.87620949, 8.86425406, 24.54943991, 19.12720576, 11.03063915, 8.08238826
5.80301646, 4.15932687, 3.26726185, 7.72819513, 26.80111938, 17.05725652, 10.55343546, 9.25742945
4.36176570, 3.79802580, 2.68328157, 6.82825014, 24.60944940, 13.28533026, 8.97357231, 14.62617517
4.49722136, 3.77822710, 3.15436206, 6.29086640, 25.74198905, 15.57883179, 14.07213559, 13.49907404
4.28660705, 4.26907484, 3.11046620, 6.41677489, 27.05873242, 18.32075326, 17.14278274, 10.41633333
4.50277692, 5.07690851, 2.93257566, 7.26808090, 28.00758826, 22.41428116, 18.23046900, 10.06975670
5.09411425, 4.69840398, 2.99583044, 7.43807771, 31.22018578, 23.77761552, 18.10110494, 8.35613547
5.00000000, 3.76497012, 3.29393382, 6.96778300, 36.99831077, 19.63224389, 14.98082107, 9.23444638
4.43001129, 4.41588043, 3.79473319, 8.42169817, 41.10869738, 16.80029762, 13.80851187, 9.52234215
4.41304883, 4.17133072, 4.09572948, 9.57209486, 41.66953323, 20.19034423, 15.17399091, 9.22090017
5.24642736, 4.33301281, 3.92109679, 8.11942116, 42.40843077, 22.03746809, 15.51209206, 7.81504958
5.02244960, 4.30697109, 3.40587727, 7.26464039, 43.13641153, 20.51280088, 12.75539102, 8.12096053
4.51109743, 3.64691651, 2.88097206, 7.17286554, 40.76763422, 19.27887445, 8.21127274, 8.86848352
4.95731782, 4.95227221, 2.51495527, 5.88642506, 35.27180177, 19.42228102, 14.15097170, 8.32015625
4.85798312, 5.45893763, 3.20156212, 6.81358936, 35.82596824, 21.22792972, 16.53027525, 11.14338369
4.70106371, 4.49165894, 3.43511281, 7.30239687, 33.47760445, 20.34944717, 14.24254191, 12.13157038
5.15994186, 3.74165739, 3.63318042, 7.71038261, 25.49264600, 20.46460359, 12.76910334, 11.25277743
5.49090157, 3.89230009, 3.95284708, 8.51909620, 28.42006334, 20.94874698, 13.09961832, 10.25670512
5.23450093, 4.67974358, 3.52491135, 6.91013748, 35.07563257, 20.27560110, 22.21598524, 7.93882863
5.50454358, 5.38516481, 4.36749356, 5.08428953, 33.28700948, 30.38626334, 26.91560885, 7.90411285
5.76844866, 5.35023364, 5.87154154, 7.13792687, 31.37275888, 31.50952237, 26.49386721, 9.62288938
5.17204022, 5.66347950, 5.42217668, 7.76530746, 29.65425770, 22.55659549, 22.04994331, 10.80162025
4.53045252, 4.98497743, 4.04969135, 7.35017007, 33.53729268, 20.09042060, 18.84409722, 9.51052049
5.14781507, 4.30697109, 3.74499666, 8.22496201, 37.87149324, 25.06491572, 20.61916584, 7.97652807
5.94348383, 4.80364445, 3.76164857, 7.84378735, 36.53525694, 30.72458299, 24.67336621, 9.97496867
5.81592641, 5.28677596, 4.08350340, 7.34166194, 41.23651295, 28.76325781, 23.01195342, 11.87960437
6.24499800, 5.32681894, 4.65832588, 8.12557690, 41.84883511, 29.68080188, 21.95563709, 10.80046295
6.08276253, 4.40170422, 4.46934000, 8.30060239, 40.89407047, 32.54612112, 24.52243870, 8.64436232
5.21536192, 4.13219070, 3.85356977, 7.96868873, 50.49628699, 27.15741151, 19.44800761, 9.99124617
5.24404424, 4.45252737, 3.92746738, 7.23014523, 47.93406930, 25.98316763, 17.84096410, 12.01353403
5.65685425, 5.43369119, 3.93700394, 7.68927825, 37.14195741, 34.95711659, 21.33893156, 12.24846929
5.40832691, 5.22494019, 3.50713558, 9.19918475, 39.31475550, 35.60828555, 21.22027333, 12.17066144
4.49722136, 4.22788363, 3.55668385, 8.96799866, 35.84410691, 24.72144818, 23.53242444, 10.82243041
4.21307489, 3.98748041, 3.84382622, 9.02911956, 30.45119045, 21.10509417, 24.64345755, 8.67179336
4.33301281, 3.88908730, 3.48926926, 8.65158945, 35.16034698, 23.09004114, 23.39123768, 8.54107722
4.75131561, 4.33589668, 3.51781182, 6.80624713, 38.19162212, 26.71469633, 25.12568407, 9.40611503
5.20816666, 4.75131561, 3.41320963, 7.04804938, 35.65319060, 34.76852024, 23.71497417, 9.05538514
4.71433983, 4.57438520, 3.56721180, 8.89241250, 44.59512305, 40.95668444, 24.30534921, 9.21547611
4.71963982, 4.53872229, 3.61939221, 9.17741794, 43.02615484, 41.05545031, 21.84948512, 9.84250984
5.16478460, 4.35889894, 3.24807635, 7.17635005, 41.94788433, 34.18479194, 18.80491957, 9.72753823
4.81404196, 4.64219776, 2.96226265, 5.72712843, 41.92075858, 28.44907731, 20.51767531, 10.59008971
4.99499750, 4.80364445, 2.98747385, 5.92874354, 39.93682511, 28.89377095, 22.32263425, 12.23008585
4.90917508, 4.26614580, 3.43874977, 6.10122938, 40.60541836, 31.53767588, 21.59166506, 12.86759496
4.34741302, 4.00312378, 3.35037311, 6.29880941, 41.45539772, 30.23615386, 17.04626059, 11.31260359
4.28952212, 3.68442669, 3.09434969, 7.60098678, 48.64514364, 24.06345777, 14.53272170, 10.75406900
5.01497757, 3.55668385, 2.92403830, 8.46758525, 41.86764861, 22.69526382, 17.53211339, 12.40765893
5.36889188, 3.90832445, 3.49642675, 7.60098678, 45.98912915, 21.10746314, 18.12112027, 12.97786577
5.47950728, 3.81444622, 3.70472671, 7.48832425, 48.56258848, 19.05190279, 16.54236984, 11.34680572
5.12591455, 3.00000000, 3.14245127, 7.63216876, 42.47410976, 21.26264330, 20.65248169, 12.49499900
4.64219776, 2.74317334, 2.97489496, 6.66145630, 41.13240815, 27.94727178, 21.68467201, 12.56781604
4.18031099, 3.43874977, 2.85482048, 6.60870638, 36.88495628, 26.96618253, 20.97915632, 9.99624930
4.34741302, 3.67423461, 3.24807635, 7.67137537, 36.47430602, 16.11831257, 18.46076921, 11.33026919
5.38980519, 3.70135110, 4.08656335, 8.94706656, 39.75267287, 18.71162740, 13.05373510, 11.21828864
5.72276157, 3.96232255, 4.03732585, 8.72209837, 36.30117078, 31.51467912, 16.93147956, 9.27227049
6.68019461, 4.05585996, 3.58468967, 7.54817859, 32.04020911, 34.93744410, 24.01561992, 10.83858847
6.51920241, 3.77822710, 3.67423461, 7.24396300, 35.34649912, 36.87512712, 26.48914872, 12.58371964
5.43599117, 5.03239506, 3.92746738, 6.10122938, 31.10586761, 37.75082781, 22.09128788, 12.07787233
5.77927331, 6.07453702, 4.12916456, 6.99464081, 31.67688432, 31.00161286, 19.27563229, 9.68633057
4.88620507, 4.63141447, 3.78813938, 8.14401621, 43.95850316, 22.63294060, 17.03599131, 8.56300181
5.54526825, 3.22102468, 3.52136337, 7.44143803, 41.88525994, 18.86994966, 10.51903037, 11.91532626
5.65022123, 3.40587727, 3.65376518, 6.73795221, 35.59880616, 21.64255068, 14.59623239, 11.69080836
3.47850543, 2.95803989, 3.09838668, 5.86088730, 36.25948152, 17.67837662, 13.61157596, 9.16242326
4.29534632, 2.69722079, 3.07814879, 7.87400787, 43.67693900, 16.82037455, 11.96662024, 9.82471374
4.48330235, 3.14245127, 3.70472671, 8.69051207, 41.22105045, 16.93812268, 13.58215741, 9.54986911
3.54612465, 3.22102468, 3.33541602, 6.81542368, 33.58385029, 15.38587014, 14.30471950, 7.84697394
4.80624594, 4.87083155, 3.71146871, 7.81824789, 36.64321220, 21.15715009, 14.72582765, 9.41010096
5.14781507, 5.38284311, 3.97492138, 8.92748565, 34.21001315, 20.44565969, 13.40895223, 11.79406630
4.33877863, 4.11703777, 3.25192251, 8.16547610, 33.67268923, 13.21362933, 11.09504394, 9.74551179
4.35028735, 3.30529878, 2.50998008, 7.54155156, 31.63976928, 14.96662955, 7.58946638, 10.39471019
4.71433983, 4.20416460, 2.63628527, 6.80441033, 34.45359198, 18.86332420, 8.07465170, 11.56719499
5.59240556, 4.73286383, 3.52845575, 7.96711993, 42.29745855, 18.01041365, 7.59605161, 8.93588272
6.22294143, 4.48887514, 3.86005181, 9.50657667, 41.17796741, 15.71464285, 8.99722179, 9.38749168
5.67009700, 5.61693867, 3.68781778, 8.47496313, 38.18114718, 17.04919353, 8.94007830, 12.28718845
4.92950302, 5.15751878, 3.74833296, 6.73609679, 43.79040991, 18.97893569, 9.01803748, 12.91607526
5.59910707, 4.01248053, 3.61593695, 6.58407169, 44.82242742, 24.49336645, 11.01135777, 11.10517897
5.54977477, 4.89642727, 3.35410197, 7.27839268, 38.69205345, 27.12793763, 11.11980216, 10.96357606
5.14781507, 5.70087713, 4.08656335, 7.61741426, 35.03177129, 21.49592985, 11.15011211, 9.51708989
5.45206383, 5.62361094, 4.41588043, 10.58418632, 34.15479469, 17.65502761, 14.84755872, 8.49852928
4.64488966, 4.46094160, 3.53199660, 11.42803570, 39.83057871, 23.42701432, 13.00576795, 11.08940936
4.90917508, 3.96862697, 3.10644491, 9.82725801, 48.70318265, 25.22300537, 8.29306940, 11.38859078
6.65770231, 4.26028168, 3.90832445, 11.54339638, 57.35961123, 20.22807455, 8.81759604, 10.16243081
6.96598880, 4.38748219, 3.87620949, 11.13103769, 51.22816608, 17.25977984, 13.21835845, 11.51629281
6.05392435, 4.61789996, 3.76828874, 8.01093003, 38.52336953, 17.79255462, 18.95784798, 13.40801999
5.65464411, 5.31742419, 3.75832409, 5.99374674, 39.06980932, 23.32595121, 23.79075451, 11.17922180
6.98927750, 8.90926484, 4.05585996, 6.91194618, 36.99087725, 26.71984281, 25.45829924, 10.52853266
6.90651866, 9.40345681, 3.97806486, 7.85811682, 31.59192935, 32.75362575, 21.94310826, 12.60852886
6.54790043, 8.69770085, 3.34290293, 7.00535509, 37.88238377, 35.91622196, 18.07691899, 12.18810896
6.64266513, 8.96381615, 3.86652299, 7.41956872, 40.33360881, 30.88810451, 18.23046900, 11.12317401
7.28868987, 8.37555968, 4.31856458, 7.21976454, 38.04733893, 27.06473721, 24.55911236, 12.67379186
7.35866836, 8.18229797, 4.67974358, 7.68277294, 43.07203269, 31.08295353, 26.43198820, 12.79746069
8.18535277, 7.49166203, 4.49165894, 7.86765531, 42.34146903, 33.66897682, 23.07975303, 12.58769240
9.67729301, 6.88476579, 3.79802580, 9.01387819, 44.27104020, 31.92726108, 19.77688044, 11.99895829
8.80340843, 7.64198927, 3.60901649, 9.12277370, 42.85323792, 27.76373534, 18.79827120, 10.26523258
8.02963262, 7.30239687, 3.89230009, 7.97652807, 39.05732966, 27.59800717, 19.15985386, 11.67475910
6.66333250, 6.03738354, 3.78813938, 7.16240183, 36.37959593, 38.00296041, 19.11086079, 11.39627132
6.93721846, 8.10863737, 3.76164857, 7.52163546, 35.77044870, 36.81541797, 22.63349288, 14.18890412
8.94986033, 10.50357082, 4.64488966, 8.60668345, 36.36756797, 26.95830113, 22.14102527, 12.99711506
7.92622230, 10.01374056, 4.88364618, 7.82943165, 40.86288047, 26.95180884, 17.06458321, 10.31382567
6.12168278, 8.12249962, 4.37321392, 7.28354309, 44.57914311, 31.11952763, 14.68928181, 10.65246450
6.70074623, 7.68114575, 4.37607130, 6.71565336, 40.48085967, 28.87040007, 15.06320019, 9.15832954
8.85720046, 7.01961537, 4.86569625, 8.73069299, 41.28104892, 26.40880535, 15.32400078, 14.29248054
8.58341424, 6.06217783, 4.80624594, 10.07099796, 40.68169121, 39.35289062, 23.29967811, 14.43433407
7.08166647, 6.25299928, 4.65564174, 8.58778202, 44.24138334, 43.91098951, 27.25389880, 11.14113998
7.58617163, 6.93721846, 4.18031099, 7.53160010, 44.20180992, 37.52932187, 24.30843475, 11.41161689
8.42169817, 8.78635305, 4.62331050, 7.65016340, 38.96536924, 36.45510938, 32.75133585, 11.43459663
9.30859818, 10.97155413, 5.17687164, 8.07310349, 40.05683462, 40.91729463, 35.31253319, 12.59662653
8.95963169, 10.33561803, 5.41987085, 8.18993284, 36.32457846, 43.59357751, 30.01666204, 13.55544171
7.48164420, 9.15286840, 5.78791845, 7.92306759, 36.89274997, 43.06942071, 32.46036044, 13.20321930
6.17656863, 8.21735967, 4.96990946, 8.05139739, 35.46829570, 39.68374982, 28.83877598, 12.70531385
7.94355084, 7.06399320, 4.25147033, 7.64198927, 30.24524756, 33.81456787, 25.68559908, 12.93251716
8.54985380, 9.26552751, 4.50000000, 6.87568178, 27.46952857, 36.66469692, 31.90885457, 15.71384740
8.34565755, 9.71853898, 4.56070170, 6.63513376, 28.32798969, 36.06313908, 30.37433127, 14.71223980
10.09950494, 9.99749969, 5.65022123, 6.80991924, 36.64832875, 33.81456787, 25.57537879, 16.29493786
10.57946123, 12.57577035, 6.19273768, 6.78601503, 35.71659278, 48.61866925, 24.90481881, 17.94575159
8.94427191, 11.67582973, 5.88005102, 6.41482658, 36.83001493, 50.58087583, 24.18005376, 14.36401754
8.81334216, 10.16734970, 5.81592641, 6.90651866, 39.75047170, 39.34558425, 27.22820229, 13.53329228
9.06504275, 9.56425637, 5.45664732, 7.84856675, 32.33187282, 37.61980861, 24.42027846, 11.44224628
10.41513322, 7.91675439, 5.23450093, 8.02963262, 28.02900284, 34.46628788, 17.52854814, 12.45893254
9.86280893, 6.95161852, 4.59347363, 6.84653197, 27.34136061, 25.02398849, 17.75950450, 13.84738242
7.48331477, 7.46156820, 4.25734659, 6.68954408, 33.01211899, 24.27498713, 17.70522522, 11.26499001
7.56472075, 7.47663026, 3.86652299, 6.72867000, 33.02915379, 25.72012830, 17.59758506, 9.47496702
7.98279400, 7.32461603, 3.80131556, 5.74456265, 24.18522276, 22.97770659, 16.20185175, 10.27861858
8.93028555, 7.46993976, 4.35889894, 6.94982014, 28.65789595, 25.49705865, 14.79273470, 10.71564277
7.63708059, 5.82451715, 4.03422855, 7.41956872, 34.13429361, 25.90608037, 15.23072552, 10.13163363
7.55148992, 5.69649015, 3.21714159, 6.35806574, 33.54474624, 23.57063851, 17.94366183, 9.66695402
7.77174369, 6.29880941, 3.18590646, 6.71565336, 30.01249740, 27.93027032, 19.33002845, 9.84758854
8.18535277, 5.90973773, 3.52136337, 7.61413160, 31.86455711, 30.59901959, 19.35846068, 10.00374930
10.26279689, 6.44398945, 3.33916157, 6.45755372, 33.99080758, 32.75057251, 21.79564177, 10.68058987
11.90063024, 6.58027355, 3.65034245, 7.02317592, 34.61466452, 31.70015773, 22.39307929, 9.89570614
10.84665847, 6.45755372, 3.84382622, 8.43356390, 34.49746367, 26.34530319, 20.60339778, 9.25067565
15.18716563, 7.68114575, 3.69797242, 8.72496418, 32.08504324, 20.90035885, 17.13111205, 12.68463638
16.50984555, 7.60427511, 3.73162163, 7.91359590, 34.55828410, 16.35236986, 16.64331698, 12.23110788
12.78280095, 6.40897808, 3.27490458, 6.10122938, 38.58302736, 21.21732782, 20.79182532, 9.84377976
11.50977845, 4.96487663, 3.13049517, 7.21803297, 39.69130887, 23.00054347, 16.34854734, 10.82243041
9.55117794, 6.12984502, 4.24264069, 8.11017879, 38.33960094, 18.92022727, 13.30131572, 9.71596624
8.81617831, 6.17656863, 4.14125585, 8.53375650, 37.37880415, 22.06184489, 14.97831766, 8.81617831
9.32469839, 5.05222723, 3.20936131, 9.66436754, 33.44136660, 23.23413437, 13.74045123, 8.61829449
10.08216247, 5.63914887, 3.17017350, 9.02773504, 29.81149107, 21.61596632, 13.82750881, 8.13326503
9.75320460, 4.89642727, 3.40587727, 8.20518129, 32.59946319, 21.66448707, 12.18605761, 11.14450537
10.55461984, 5.76844866, 3.66060104, 8.86848352, 36.74438733, 22.81501698, 13.77043935, 13.53421590
11.33578405, 6.76202632, 3.43511281, 7.96711993, 34.62116405, 23.73341526, 15.61489673, 12.37941840
10.26401481, 5.93717104, 3.52491135, 6.70447612, 29.37771264, 22.21879835, 13.62534403, 10.28469737
8.95404936, 6.33640276, 4.08962101, 8.10863737, 36.99662147, 21.76924436, 14.16862732, 9.41674041
8.36510610, 5.86515132, 3.90832445, 8.46020094, 41.66413326, 20.89976076, 16.55672069, 10.01249220
7.91833316, 3.61593695, 3.36526373, 8.79630604, 38.49545428, 19.27887445, 14.49137675, 12.95183385
7.05868260, 3.66742416, 3.35037311, 9.30456877, 41.00945013, 20.45177254, 13.46384046, 13.53236860
7.17635005, 4.24264069, 3.09434969, 8.48380811, 41.93566501, 23.57594113, 20.05243127, 11.33688670
7.48832425, 4.56344168, 3.44238290, 9.17877988, 43.38865059, 25.27795482, 19.07419723, 10.97041476
8.53522115, 5.21775814, 3.39852909, 7.95141497, 39.01698348, 25.15203769, 13.88344338, 11.72284095
10.90756618, 5.55877684, 3.18590646, 5.92663480, 36.66299224, 21.16128541, 16.06315660, 9.95113059
10.28226629, 5.53850160, 4.01248053, 7.92464510, 34.48876629, 20.27868339, 17.86966704, 8.37854403
8.53522115, 5.55202666, 4.27784993, 10.56645636, 27.86036611, 19.67993902, 16.16477652, 11.73882447
9.49341877, 5.14538628, 3.62629287, 10.22374687, 35.70609192, 21.68236611, 14.88119619, 12.99422949
10.56290680, 5.37819672, 3.40220517, 8.05450185, 39.60176764, 23.89194425, 17.46925871, 11.27608088
10.36339713, 5.86301970, 3.54259792, 8.42763312, 41.17280656, 20.94755356, 16.33630925, 10.50357082
10.93274897, 6.07247890, 4.00624512, 7.81024968, 36.84392759, 21.84834090, 15.84376849, 10.97041476
10.22130129, 5.31036722, 3.75499667, 7.91675439, 29.76155238, 25.27498764, 16.54388104, 9.98624053
7.27151979, 4.71699057, 2.90688837, 8.71636392, 31.97499023, 23.81596103, 16.51892854, 8.58632634
5.96028523, 5.07937004, 2.87228132, 7.15541753, 35.24804959, 23.64423820, 15.95540661, 9.56425637
5.68110905, 4.27784993, 2.62202212, 6.51152824, 37.76870398, 20.97617696, 12.47497495, 9.11043358
6.94802130, 3.66060104, 2.62202212, 5.93506529, 37.60850968, 16.92187933, 15.82087229, 10.71447619
7.03917609, 3.97177542, 3.21714159, 5.83095189, 36.13896789, 18.80824287, 16.56804153, 10.46780779
8.11326075, 4.81923230, 3.46770818, 6.49037749, 35.64898316, 19.28859767, 15.98202115, 10.35132842
9.79030132, 4.66904701, 2.92831009, 6.49615271, 30.58185737, 21.35942415, 18.43502102, 10.67824892
8.10092587, 3.46410162, 2.78388218, 6.29086640, 30.19768203, 21.52150088, 15.03745324, 8.14861951
6.31070519, 3.45325933, 3.39852909, 7.50499833, 38.50844063, 19.42163742, 15.08061670, 8.57175595
6.19879020, 3.94968353, 3.35782668, 7.28697468, 35.94196711, 20.42057786, 16.26883524, 8.56008178
6.47108955, 4.14125585, 3.12649964, 7.00178549, 30.02374061, 19.83998488, 12.26886303, 8.33516647
9.17469346, 4.32434966, 3.23264598, 8.20213387, 35.34331620, 19.03483648, 12.67280553, 9.40611503
9.03742220, 3.52136337, 2.63153947, 6.33442973, 36.45373781, 23.32380758, 17.74330860, 9.03465550
7.86924393, 4.00624512, 2.50998008, 6.49807664, 35.26861211, 23.26478025, 15.90597372, 8.47938677
8.53375650, 6.18263698, 3.03726851, 7.96868873, 41.00792606, 23.81071188, 9.71982510, 8.59505672
7.17635005, 5.61693867, 3.07001629, 8.12711511, 37.93547153, 23.63789331, 13.26555691, 9.73524525
8.54839166, 4.22492603, 3.09030743, 7.43807771, 31.54480940, 20.29285589, 14.76397643, 10.05982107
8.85155354, 5.81592641, 3.30151480, 6.82641927, 37.73857443, 20.58154513, 15.37774366, 10.27861858
7.83102803, 5.70526073, 3.70472671, 7.23014523, 36.93507818, 22.05504477, 16.80476123, 11.10292754
9.55771939, 4.14427316, 3.70472671, 7.10105626, 34.84393778, 22.09355110, 17.12454379, 10.90412766
8.70775516, 4.61519230, 3.44601219, 6.98391008, 37.00000000, 17.53639073, 17.19811036, 10.27618606
7.10105626, 5.81162628, 3.74499666, 7.41956872, 33.46752157, 14.83155420, 12.36426302, 9.34745955
6.99106573, 6.55171733, 3.48568501, 7.69415362, 40.42276586, 17.93460342, 8.26589378, 8.02963262
7.07990113, 5.47722558, 2.88963666, 7.58122681, 44.45250274, 21.71232369, 14.31956703, 6.86476511
9.37683315, 4.22196637, 3.52136337, 9.08295106, 36.96552448, 25.72207223, 18.10455744, 8.79914769
10.46303015, 4.87339717, 3.59165700, 8.63568179, 33.62067816, 27.66315239, 15.16080473, 11.26055061
9.86154146, 5.57673740, 3.48209707, 7.40945342, 39.94339745, 26.21116174, 14.66714014, 11.28162222
8.22800097, 6.04565960, 3.81116780, 8.19145897, 43.97868802, 20.89916266, 15.51853730, 9.51314880
7.53823587, 5.53850160, 3.80460248, 7.81024968, 42.19034250, 22.08449682, 16.47346351, 9.19238816
9.18422561, 4.93710441, 3.57770876, 6.76202632, 41.85600315, 25.07438932, 17.16173068, 9.37683315
8.50147046, 4.37321392, 3.40587727, 7.25947657, 33.06244093, 23.62361107, 14.42220510, 8.86284379
6.63513376, 4.47213595, 3.70135110, 8.32015625, 37.50466638, 23.96716504, 12.66096363, 7.89145107
5.98331012, 5.31272058, 3.83405790, 7.18853253, 43.59157029, 23.18674190, 11.58555135, 8.74499857
7.79583222, 6.78785680, 3.59861084, 6.21691242, 41.24015034, 21.42428529, 14.52411787, 11.41818725
10.52734534, 6.78969808, 3.50713558, 6.14613700, 41.94877829, 21.23499470, 15.34438008, 15.23318745
8.92468487, 5.70745127, 3.60555128, 6.38357267, 38.02729283, 24.63990666, 17.17265268, 13.52405265
5.17445649, 5.28441104, 3.82099463, 7.45654075, 40.43204175, 21.25676363, 16.63129580, 9.63716763
7.05691151, 6.29682460, 3.79473319, 8.03430146, 46.67065459, 14.21179088, 10.67824892, 10.12916581
7.16937933, 7.02495552, 3.65718471, 8.44097151, 39.94715259, 16.29877296, 8.98888202, 8.50588032
7.83102803, 5.46351535, 3.39852909, 7.84697394, 31.32690537, 16.00702971, 7.03740009, 10.22374687
8.31414457, 5.31977443, 3.00000000, 6.46142399, 33.63480340, 18.42009772, 7.11512474, 12.24846929
5.90973773, 5.26070338, 2.97909382, 6.98748882, 30.55282311, 17.35295364, 8.28402076, 12.64713406
5.81807528, 4.62871472, 2.66926956, 6.52303610, 30.42244237, 17.62881164, 9.50657667, 10.88806686
6.56124988, 4.26907484, 2.66926956, 5.88217647, 35.22073253, 23.47019386, 9.15150261, 9.86914383
6.72867000, 4.73022198, 2.69258240, 6.68393597, 44.37369716, 23.12195926, 8.17771362, 9.97872737
5.52720544, 5.04479930, 2.93257566, 7.85175140, 45.45079757, 22.16923544, 10.95559218, 10.61955743
5.23211238, 5.07198186, 3.54612465, 9.28708781, 35.48978726, 22.52887037, 17.18720454, 10.52853266
7.38071812, 5.16720427, 3.19374388, 8.07465170, 35.74318117, 31.64845968, 23.16894473, 9.96995486
7.39425453, 4.09878031, 2.95803989, 6.54790043, 36.42835434, 31.95191700, 23.24758052, 11.42256539
