2.59807621, 4.09267639, 9.08982948, 22.16134021, 35.24804959, 8.14555093, 3.32039154, 2.26936114
2.29673682, 3.48209707, 6.85383105, 17.30823503, 37.63309714, 7.06753139, 2.80178515, 2.31840462
2.33452351, 3.74833296, 7.14317856, 18.45264209, 42.25813531, 7.77656737, 3.75499667, 2.59326050
3.03315018, 5.65464411, 8.67611664, 18.01388353, 40.36211095, 12.13878083, 5.30565736, 2.77037904
3.80788655, 7.13967786, 7.90885580, 13.55544171, 36.67526414, 17.94505503, 7.43471587, 4.16833300
5.67230112, 10.56053976, 7.54155156, 15.67960459, 32.35428874, 20.95232684, 9.20869155, 7.51165761
6.11350963, 10.84089480, 9.16378743, 17.87945749, 38.09954068, 23.73552190, 10.41513322, 7.60756203
5.08183038, 7.86765531, 8.47053717, 15.50322547, 38.59112592, 22.37632678, 9.22496612, 6.02287307
4.12007281, 6.21892274, 6.84835747, 13.43781976, 38.26094615, 20.32424660, 7.62889245, 6.36985086
5.85662019, 11.66190379, 5.92874354, 13.00769003, 37.99901315, 20.01624340, 7.58287544, 5.93717104
6.34822810, 12.83062742, 4.44971909, 10.41033141, 33.62885666, 15.60288435, 6.22896460, 5.03984127
5.16962281, 8.62409416, 3.79473319, 8.28854631, 33.60208327, 12.57179383, 5.06951674, 5.34322000
9.38482818, 16.87749981, 5.94348383, 9.47760518, 36.53080892, 12.63328936, 5.21296461, 5.28677596
17.62881164, 32.57261119, 7.15192282, 9.74166310, 36.49280751, 15.11125408, 5.96028523, 5.32447180
16.30797351, 29.91863967, 6.21691242, 9.85012690, 34.31399132, 15.30686121, 5.46580278, 5.16720427
7.69090372, 12.69842510, 5.90550591, 11.38090506, 31.82137646, 14.86270500, 5.41987085, 3.98120585
7.14667755, 11.65439831, 5.96447818, 11.17810360, 31.97616300, 14.01517035, 5.47494292, 3.65718471
7.57462870, 13.89964028, 5.03239506, 8.98053451, 30.47498975, 13.16434579, 5.14052526, 3.26343377
7.51997340, 13.33135402, 5.01746948, 9.71081871, 24.14953416, 14.57394936, 5.42448154, 3.56721180
6.01040764, 9.69020124, 4.50277692, 10.24939023, 27.08135890, 12.62933094, 4.24264069, 3.40587727
6.14206806, 10.68527024, 4.43001129, 8.72782905, 26.15530539, 10.42952540, 4.44128360, 3.40954542
7.65506368, 14.63642716, 5.41756403, 8.70919055, 25.44012579, 11.83532847, 5.07937004, 3.90832445
9.27092228, 16.60421633, 4.90407993, 7.86129760, 28.87516234, 12.69350227, 4.62871472, 3.93382765
11.97810503, 20.02186305, 5.27730992, 7.33314394, 27.36101241, 10.90527395, 4.71963982, 4.30697109
19.35329429, 32.50307678, 16.79806536, 10.83282050, 24.23685211, 10.70747403, 4.63950428, 5.49772680
21.02855202, 40.13228127, 17.64369576, 10.47019580, 24.16195356, 13.67753633, 6.29483916, 7.92622230
14.17039167, 30.96328471, 7.58122681, 7.21630099, 25.56120107, 18.52970588, 7.35696948, 7.59111323
8.12096053, 15.90125781, 4.47213595, 7.98905501, 22.18163655, 17.41120329, 6.12780548, 5.01497757
10.98180313, 24.39825813, 4.67439836, 7.52163546, 21.50755681, 13.46476884, 5.15994186, 4.96739368
13.81756129, 28.38221274, 4.86055552, 6.93361378, 27.00092591, 13.25330148, 5.26070338, 4.87852437
11.47932925, 20.76415180, 4.69041576, 6.84287951, 25.34511787, 12.36729558, 6.41287767, 7.16065639
7.66811581, 15.79161170, 4.15632049, 6.44398945, 23.90502039, 11.59202312, 6.41287767, 8.25227241
7.70064932, 17.15954545, 3.63318042, 5.87154154, 26.10890653, 10.71914176, 5.28677596, 6.98032951
8.86425406, 17.57697357, 3.29393382, 5.77494589, 25.53918558, 13.52590108, 5.47265932, 6.71937497
7.92622230, 15.00499917, 3.01662063, 5.24642736, 28.78280737, 12.24846929, 4.45252737, 5.57000898
4.99249437, 9.44325156, 2.81069386, 5.06211418, 28.06955646, 7.65669642, 3.65718471, 6.96419414
4.36749356, 7.64525997, 2.52487623, 5.04479930, 26.16390644, 6.57837366, 4.13219070, 7.58287544
4.21010689, 6.54217089, 2.70647372, 5.29858472, 29.14618328, 7.43135250, 3.73162163, 7.05691151
3.50713558, 5.65022123, 3.14245127, 5.82022336, 30.64718584, 7.87559522, 4.33301281, 7.24223722
4.80364445, 8.20822758, 3.34664011, 5.25832673, 28.41786410, 6.89565080, 4.76969601, 7.81664890
5.76411311, 9.63976141, 2.97489496, 4.21307489, 23.10086578, 7.36885337, 5.31977443, 7.34676800
6.08481717, 11.38529754, 2.60768096, 4.41021541, 24.48571012, 7.77817459, 5.70745127, 8.57029754
5.80947502, 11.46080276, 3.17017350, 5.35957088, 26.21879097, 10.93617849, 5.03736042, 9.04018805
5.22972275, 8.56738000, 3.62629287, 6.37181293, 24.79868948, 12.32781408, 4.27200187, 6.25499800
6.43234017, 9.08707874, 3.54964787, 5.83523778, 21.86835613, 9.82598596, 4.70903387, 5.82666285
6.01248701, 8.44689292, 3.51069794, 5.05717312, 18.46144631, 8.11634154, 5.27257053, 7.18679344
4.00312378, 5.67230112, 3.30907842, 5.77711000, 20.68513959, 9.93730346, 4.64219776, 8.07929452
4.41871022, 6.73052747, 3.36897611, 5.90550591, 27.63919319, 10.57946123, 4.38748219, 6.70634028
5.81807528, 8.59360227, 4.18031099, 6.24899992, 28.08869880, 10.21885512, 5.63027530, 7.47997326
5.38516481, 7.43303437, 3.90192260, 6.77679865, 25.11772283, 11.59849128, 5.80732296, 7.90094931
3.93382765, 5.18652099, 3.52136337, 6.89565080, 26.89284291, 11.44224628, 5.23450093, 7.00178549
4.85540935, 7.02851336, 3.53199660, 5.78791845, 27.85139135, 11.04875559, 5.95608932, 8.23255732
4.68241391, 6.83922510, 3.26343377, 5.00749438, 24.91686176, 9.25607908, 5.63471383, 7.69902591
3.59861084, 4.66636904, 2.82400425, 4.67974358, 18.04993075, 6.41287767, 4.53045252, 8.19603563
3.81444622, 4.82700735, 2.89827535, 4.64219776, 19.76360291, 7.33655232, 4.86826458, 8.48822714
3.69797242, 4.81144469, 3.35782668, 5.31507291, 24.05306633, 8.46610891, 4.69041576, 6.76017751
3.81444622, 5.52494344, 3.91152144, 6.01040764, 23.75710420, 9.60208311, 4.95983871, 7.92779919
4.39602093, 6.49807664, 4.02181551, 6.20080640, 23.33505946, 9.34879671, 5.42448154, 8.87130205
4.57165178, 6.82458790, 3.27108545, 5.43139025, 20.85725294, 7.76047679, 4.37607130, 7.77335192
3.99061399, 5.62138773, 3.21714159, 5.25119034, 16.36841471, 7.49499833, 4.24852916, 6.37769551
3.19765539, 4.14125585, 2.94957624, 4.81144469, 20.72076253, 6.53834842, 4.33012702, 5.59910707
3.79473319, 5.34322000, 2.64102253, 4.09878031, 23.69018784, 6.22294143, 4.67974358, 4.45533388
4.66636904, 5.85021367, 2.72946881, 3.92746738, 25.11025687, 5.90127105, 4.30406784, 5.00999002
4.25147033, 5.50681396, 2.63628527, 5.01746948, 26.44569908, 7.80704810, 5.39907399, 8.40089281
3.45687720, 4.63680925, 3.24037035, 6.38748777, 22.96029181, 12.16757987, 6.61626783, 8.95265324
4.87596144, 6.63513376, 3.94017766, 6.47302093, 21.70944495, 13.16149688, 6.06011551, 8.68907360
5.56327242, 7.85970737, 3.72155881, 6.16644144, 22.24803362, 11.64366781, 5.80947502, 9.75448615
4.58257569, 6.41482658, 4.10182886, 7.82623792, 22.79638129, 13.40335779, 6.53069675, 10.16366076
4.16533312, 6.34822810, 4.44690904, 7.94040301, 20.37032155, 12.30954914, 6.05392435, 9.03742220
3.92109679, 6.54790043, 3.98748041, 6.18667924, 16.32482772, 9.91841721, 5.70087713, 8.89803349
3.16622804, 6.03324125, 3.82753184, 6.11146464, 19.12981965, 10.65481112, 6.04152299, 9.30591210
2.94108823, 5.53624421, 3.38747694, 5.93506529, 22.91506055, 9.20461841, 4.93710441, 7.77174369
3.70135110, 6.53069675, 3.05777697, 4.90662817, 21.08731846, 8.47938677, 4.35028735, 8.11788150
4.08962101, 7.55810823, 2.91976026, 4.36176570, 17.98471573, 7.52828002, 3.74833296, 9.13783344
3.82426464, 6.45174395, 2.62202212, 4.42436436, 16.51211676, 6.50192279, 3.15436206, 7.92937576
3.13847097, 4.59347363, 3.07001629, 5.28441104, 14.45683229, 6.62759383, 4.60705980, 5.44747648
3.51069794, 5.84593876, 3.32415403, 4.88876262, 13.21457529, 7.17635005, 5.85021367, 6.86840593
4.42436436, 7.01783442, 2.65518361, 3.62629287, 12.53794241, 7.18853253, 5.14295635, 7.36885337
4.47493017, 6.26099034, 2.56417628, 4.14427316, 16.11133142, 8.14861951, 4.55796007, 7.49499833
3.57421320, 5.31507291, 2.95803989, 4.73286383, 15.88395417, 10.73778376, 5.68110905, 9.79923466
3.77160443, 6.38748777, 3.00000000, 5.15994186, 14.89966443, 10.29320164, 6.53452370, 9.98874366
4.01559460, 6.85565460, 2.84165445, 4.71699057, 15.70509471, 9.77241014, 6.35019685, 9.38216393
3.25960120, 5.41987085, 2.72946881, 3.97177542, 13.11487705, 10.25304833, 5.23688839, 11.03177230
3.11046620, 4.07124060, 2.57390754, 4.19225476, 10.73778376, 9.18830779, 5.03239506, 11.24499889
3.62973828, 4.70372193, 2.32379001, 5.04232089, 18.35347379, 9.96493853, 7.36715685, 9.40877250
3.94334883, 5.27730992, 2.61725047, 6.60870638, 29.74516767, 9.62418828, 7.48164420, 8.87975225
3.90832445, 4.82959626, 2.55929678, 6.41677489, 29.00043103, 9.02219485, 5.12591455, 8.35613547
4.07737661, 4.78800585, 2.71108834, 4.82959626, 18.92154856, 11.94989540, 5.24880939, 6.65957957
3.77822710, 5.01497757, 3.75832409, 4.99749937, 14.51292527, 15.80980708, 5.88854821, 4.91172068
3.24422564, 4.83476990, 3.60208273, 5.19615242, 14.95827530, 16.48029126, 5.83309523, 5.01746948
3.64005494, 4.25440948, 2.52982213, 4.64219776, 20.03808873, 15.62929941, 5.99374674, 7.62069551
4.11096096, 4.36463057, 2.28582589, 3.86328875, 20.36234269, 15.15420734, 5.85662019, 10.32593821
3.91152144, 5.02493781, 2.25277607, 3.20156212, 14.91224329, 13.28721190, 6.45948914, 10.14519591
3.25576412, 5.07198186, 2.35584380, 3.56370594, 13.48888431, 12.65701387, 5.97913037, 8.61974478
6.36199654, 8.78777560, 2.90688837, 4.56891672, 15.99140394, 13.99196198, 8.81050509, 9.42602780
7.01070610, 9.61379218, 3.07001629, 4.56618002, 16.31333810, 12.96341005, 10.22130129, 9.27900857
4.61519230, 7.88986692, 2.81513765, 4.36176570, 21.31959193, 12.58669933, 7.13442359, 7.85652595
3.97806486, 7.49166203, 3.20156212, 4.70637865, 21.19669786, 15.41752250, 4.83735465, 7.42293742
3.54612465, 5.48178803, 2.95803989, 3.88908730, 14.69863939, 13.98302542, 5.10881591, 7.13267131
3.66742416, 5.76194412, 2.48495473, 4.00312378, 20.09912933, 11.76647781, 5.44288526, 7.41451280
4.26614580, 6.57076860, 2.61725047, 4.23083916, 19.23148460, 11.18033989, 5.95608932, 8.61684397
4.17432629, 5.38748550, 2.09761770, 3.69120577, 14.92816131, 9.33005895, 5.95818764, 10.39230485
4.32434966, 5.85662019, 2.28582589, 3.88908730, 16.59292018, 8.51175658, 6.28887907, 10.50714043
5.30330086, 7.57957782, 2.96226265, 3.76497012, 14.10850807, 7.31778655, 5.82022336, 8.69051207
5.34088008, 8.49264388, 3.10644491, 3.50000000, 13.20889852, 9.57862203, 4.91680791, 7.79262472
4.79322438, 7.73950903, 3.51425668, 3.96232255, 14.55163221, 22.59811939, 7.35187051, 8.74356907
4.30116263, 5.64358042, 4.18031099, 6.36788819, 18.52700731, 27.10027675, 9.69793793, 11.42584789
5.45435606, 7.86765531, 4.23083916, 7.26291952, 20.62946921, 21.72556098, 9.96619285, 12.89670501
5.22733202, 8.12096053, 3.20546408, 5.37587202, 16.60798001, 26.09645570, 8.08393469, 13.35009363
3.18198052, 5.05222723, 2.96647939, 4.01559460, 15.52417470, 23.46060528, 6.19273768, 12.19221063
3.68781778, 5.74891294, 3.07814879, 3.79473319, 14.96078207, 9.97997996, 5.16962281, 10.02496883
4.16833300, 6.46915760, 2.16794834, 2.82842712, 10.40552738, 12.11404144, 4.61248306, 9.61249187
3.89230009, 6.24899992, 2.06155281, 2.56417628, 10.28469737, 12.85593248, 5.42908832, 10.11063796
3.29013678, 5.50681396, 2.20227155, 2.68793601, 10.31140146, 12.32375754, 5.48406783, 8.68619595
3.25192251, 5.55652769, 2.09165007, 2.47487373, 16.10822771, 11.12429773, 5.24166004, 7.60756203
4.13219070, 5.90550591, 2.17370651, 2.60288302, 16.53556773, 11.36991645, 6.10122938, 9.26687650
4.32145809, 5.54752197, 1.95576072, 3.09030743, 11.07135945, 12.49599936, 7.01605302, 9.45515732
3.27108545, 4.81663783, 1.78885438, 3.26726185, 11.78558441, 10.68877916, 6.28887907, 8.07000620
2.84165445, 3.77491722, 1.99374020, 3.10644491, 11.73882447, 12.37537878, 5.39675829, 9.21954446
3.67763511, 4.87339717, 1.88414437, 2.94533530, 11.34570403, 14.54819576, 5.64358042, 11.31149857
3.28633535, 4.95731782, 1.83030052, 2.73404462, 10.27010224, 13.00480680, 5.19133894, 11.27940601
3.54612465, 5.24404424, 2.21359436, 2.67394839, 10.68410034, 13.13202193, 5.80086200, 11.68011130
3.90832445, 5.27730992, 2.41867732, 2.90258505, 14.33788687, 14.56279506, 6.62193325, 13.37721944
4.35315977, 7.25430906, 2.29128785, 2.85919569, 14.73261688, 13.10343466, 6.42066975, 11.61895004
4.61248306, 7.25603197, 2.44948974, 2.95803989, 13.71768931, 13.84467407, 6.12780548, 8.35314312
3.42417873, 3.93064880, 2.79284801, 3.88587185, 13.59595528, 16.91818548, 8.01716908, 8.65158945
3.03726851, 4.41871022, 2.85482048, 4.19523539, 12.40564388, 17.42699056, 8.21279490, 9.99124617
3.35410197, 4.80884602, 2.89827535, 3.99687378, 14.60479373, 16.95656215, 6.48074070, 10.51427601
4.29243521, 6.75277721, 3.07408523, 4.34453680, 17.57768472, 14.51206395, 7.78941590, 10.35374328
3.97806486, 6.71006706, 2.83725219, 4.28660705, 16.09580691, 12.97786577, 7.36545993, 9.67600124
2.85919569, 4.12916456, 2.72029410, 4.25440948, 13.93556601, 13.82570071, 7.32290926, 9.58253620
3.28252951, 3.93700394, 2.77037904, 4.67707173, 15.76467570, 16.60572191, 8.81617831, 9.95113059
3.76497012, 5.10392006, 2.91976026, 4.81663783, 15.71543827, 18.41331040, 8.28251170, 8.42021377
3.38008876, 5.54075807, 2.93683503, 4.64758002, 13.94542936, 16.15239920, 6.45948914, 7.15192282
2.91547595, 4.63141447, 2.85043856, 4.29243521, 12.70826503, 13.03744607, 5.53850160, 7.75886590
2.81957444, 3.96232255, 2.65988722, 3.67423461, 10.49404593, 11.74946807, 5.96028523, 8.23711114
2.69258240, 3.95916658, 2.24165118, 2.91976026, 7.81024968, 11.03630373, 5.54301362, 8.91908067
2.81957444, 4.53872229, 2.86792608, 4.07737661, 9.54856010, 7.66974576, 5.89703315, 9.85773808
2.75680975, 4.35315977, 2.80178515, 4.26321475, 9.55641146, 7.84856675, 6.13392207, 11.30265456
3.08625987, 3.88587185, 2.28582589, 3.59513560, 8.19908531, 13.18142633, 6.61059755, 11.03063915
3.03726851, 3.59165700, 2.42383993, 3.35782668, 8.04052237, 14.39096939, 6.46722506, 8.97357231
3.95916658, 5.78143581, 2.60288302, 3.06594194, 7.43303437, 11.20267825, 5.96866819, 8.42318230
3.77822710, 5.91185250, 2.97489496, 4.01248053, 8.98888202, 11.09617051, 6.14817046, 9.35147047
2.22485955, 3.17017350, 2.60768096, 3.56370594, 8.07000620, 9.87927123, 5.17928567, 9.59947915
2.69722079, 3.61939221, 1.96214169, 2.67394839, 6.24499800, 7.25603197, 4.42153819, 8.88819442
3.13448560, 4.05894075, 1.91049732, 2.91547595, 6.52686755, 6.86476511, 4.49444101, 9.68762097
3.44601219, 4.41021541, 2.51992063, 3.92428337, 7.76369757, 6.76017751, 4.16233108, 9.40345681
3.15039680, 4.89897949, 2.66458252, 4.14427316, 8.52936105, 8.35613547, 4.82959626, 7.19548470
2.37697286, 4.00624512, 2.09761770, 2.92831009, 6.68393597, 8.31564790, 4.69041576, 5.32447180
2.92831009, 4.04042077, 1.87082869, 2.44948974, 5.03736042, 7.65343060, 4.06509532, 8.00780869
3.52491135, 4.63680925, 1.76068169, 2.69258240, 5.72712843, 6.28689112, 5.37354632, 9.35547968
3.35782668, 4.05585996, 2.02484567, 2.54460213, 5.41294744, 4.70372193, 5.71839138, 8.97914250
3.26343377, 3.68442669, 2.17370651, 2.75680975, 6.17454452, 6.22695752, 5.01248441, 9.02080928
3.04548847, 3.46770818, 2.09761770, 3.01247407, 7.41451280, 6.58596994, 4.34165867, 9.04157066
2.86356421, 3.86005181, 2.06155281, 3.22877686, 7.29211903, 6.47881162, 4.53321078, 7.56141521
2.89827535, 4.04351332, 2.25831796, 3.90832445, 8.32015625, 7.43135250, 5.46351535, 8.20518129
3.02076149, 3.92109679, 2.54460213, 4.14427316, 9.31128348, 7.67951821, 5.83309523, 10.30412539
3.44963766, 4.21900462, 2.90688837, 4.33301281, 9.23444638, 9.28574176, 5.49317759, 9.25472852
3.21325380, 4.54147553, 2.99583044, 4.00312378, 7.90411285, 9.93981891, 5.56551884, 8.21431677
2.90688837, 4.39602093, 2.62202212, 3.75166630, 7.67300463, 7.85811682, 6.02702248, 8.51762878
3.11046620, 4.64758002, 2.21359436, 3.63661931, 8.10709566, 5.82451715, 5.18411034, 9.23715324
3.07001629, 4.68241391, 1.93002591, 2.87228132, 6.90651866, 6.86658576, 4.15030119, 9.71853898
3.27108545, 4.52216762, 2.09761770, 2.66458252, 6.50192279, 6.32850693, 4.02492236, 9.03465550
3.32039154, 4.39317653, 2.12720474, 2.77938842, 7.16240183, 3.89230009, 5.10636857, 9.83996951
3.01247407, 3.77491722, 1.86413519, 2.68328157, 6.92278846, 4.25440948, 5.15994186, 11.12092622
3.16622804, 4.29534632, 2.19658826, 2.78836870, 7.43135250, 4.94974747, 5.21536192, 10.18700152
3.11849323, 3.99374511, 2.40831892, 3.25192251, 8.04984472, 5.09656747, 4.85283422, 9.79030132
2.50499501, 3.11046620, 2.31300670, 3.65034245, 8.60087205, 5.50000000, 4.65564174, 9.71339282
2.37697286, 3.36897611, 1.97484177, 3.40220517, 7.87083223, 5.27257053, 5.44058820, 9.05814551
2.93683503, 4.11400049, 2.38222585, 3.33166625, 8.13480178, 4.64219776, 5.79007772, 9.35547968
3.54259792, 4.63680925, 2.57875939, 3.35410197, 9.03603896, 4.57165178, 5.89279221, 9.32067594
3.17017350, 3.85356977, 2.33987179, 2.89395923, 7.01070610, 4.41871022, 4.71433983, 7.17286554
2.69258240, 3.49642675, 2.13307290, 2.68793601, 5.83309523, 4.39033028, 4.56344168, 6.37965516
3.05368630, 4.27784993, 1.78185297, 2.69722079, 5.64800850, 4.85540935, 4.81663783, 10.31867240
3.43147199, 4.75394573, 2.16217483, 2.90688837, 6.20080640, 5.34789678, 5.02493781, 10.31867240
3.43874977, 4.51663592, 2.32916294, 2.77488739, 7.13792687, 4.73814310, 5.27494076, 7.96398142
3.11046620, 3.89230009, 2.21923410, 2.54460213, 6.18869938, 4.73022198, 5.50227226, 8.87411967
2.74772633, 3.86652299, 2.09165007, 2.63153947, 5.17445649, 4.91426495, 5.62805473, 8.95544527
2.81957444, 4.27200187, 1.93002591, 2.40312297, 6.15020325, 4.66904701, 5.34322000, 8.89803349
2.84165445, 3.84707681, 1.78185297, 2.11541958, 6.11964051, 4.37035468, 5.47722558, 8.58050115
2.58360214, 3.11448230, 2.00000000, 2.65047166, 6.88476579, 4.21307489, 6.06630036, 9.59166305
2.56904652, 4.10487515, 2.04939015, 3.06186218, 7.84697394, 5.06705042, 6.12576526, 10.33682737
3.22490310, 4.71433983, 2.20794022, 2.96647939, 7.10809398, 5.36889188, 4.85798312, 10.87428159
3.02076149, 4.06509532, 2.12720474, 2.42383993, 5.41525623, 4.33301281, 4.48887514, 10.97497153
2.72946881, 3.36526373, 1.61245155, 1.94935887, 6.69514750, 4.37892681, 4.85025773, 8.51469318
2.75227179, 3.20156212, 2.00000000, 2.56417628, 7.49499833, 4.44690904, 4.34165867, 9.27900857
2.26936114, 3.68442669, 2.25831796, 2.63628527, 5.92874354, 3.26343377, 4.85025773, 10.94189198
3.14245127, 3.99374511, 1.89736660, 2.44948974, 6.49230314, 3.41686991, 4.57984716, 9.15150261
4.03422855, 5.41987085, 2.06155281, 2.98747385, 10.32956921, 4.15932687, 5.25119034, 8.26589378
3.68781778, 5.48634669, 2.25277607, 2.81069386, 10.27983463, 5.64800850, 5.79655070, 8.21127274
2.35584380, 3.31285375, 1.84390889, 2.42383993, 8.51175658, 6.57457223, 4.05277683, 6.64078309
2.94533530, 4.28369000, 1.78885438, 2.42899156, 9.18694726, 6.12984502, 3.84382622, 7.24568837
3.07001629, 4.53045252, 1.89076704, 2.73404462, 10.93846424, 5.26545345, 4.89131884, 7.81504958
2.59807621, 3.47491007, 1.71755640, 2.52982213, 10.22741414, 4.27200187, 6.61059755, 9.55771939
2.46475151, 3.19765539, 1.89736660, 2.88097206, 10.16243081, 4.23674403, 6.41092817, 9.48551527
2.38746728, 3.13049517, 2.19089023, 3.55316760, 10.62191132, 4.20713679, 5.43829017, 7.84219357
2.63628527, 3.18982758, 2.31300670, 3.26343377, 7.25603197, 3.43511281, 6.15832770, 9.17196816
2.72029410, 3.03315018, 2.24165118, 2.90258505, 7.19895826, 4.57165178, 5.79870675, 8.87834444
3.13049517, 3.13847097, 2.23606798, 2.84165445, 9.99124617, 4.81923230, 4.83993802, 6.94622199
3.76164857, 4.66100847, 2.03715488, 3.19374388, 10.76336379, 4.47493017, 4.61519230, 5.75325995
4.07737661, 4.82959626, 1.80277564, 3.00416378, 7.68277294, 4.40170422, 4.50832563, 6.08276253
3.62973828, 3.14642654, 1.77482393, 2.31300670, 4.95983871, 3.75832409, 3.92428337, 8.58341424
3.08220700, 3.08220700, 2.02484567, 2.77938842, 6.97495520, 4.44409721, 3.99061399, 9.49605181
3.17804972, 3.97492138, 2.02484567, 2.88963666, 8.48822714, 4.83476990, 5.40601517, 10.63484838
3.27490458, 4.50277692, 1.78885438, 2.63153947, 8.01560977, 4.08044115, 5.95608932, 11.02723900
4.12310563, 4.55521679, 1.96214169, 2.72946881, 9.01249133, 3.92428337, 4.92696661, 11.46189339
4.15030119, 4.52493094, 1.95576072, 2.14476106, 10.15750954, 3.58468967, 4.17133072, 11.13552873
2.86356421, 4.19523539, 1.91702895, 1.95576072, 9.06228448, 2.91547595, 4.55247186, 8.78493028
3.04959014, 3.37268439, 1.89736660, 2.28582589, 7.70876125, 3.33166625, 4.89897949, 7.37563557
3.57770876, 3.18982758, 1.99374020, 2.35053185, 6.27893303, 3.81444622, 4.67439836, 9.88812419
3.14245127, 3.60555128, 2.01866292, 2.78388218, 6.10941896, 4.39033028, 4.30987239, 10.22619186
2.61247010, 4.00624512, 2.08566536, 2.63628527, 6.15426681, 4.06509532, 4.24558594, 7.23705741
3.20936131, 3.70135110, 2.00624026, 2.01246118, 6.52495211, 3.40954542, 4.23379263, 6.43234017
3.28252951, 3.51425668, 2.09761770, 2.52982213, 7.90094931, 3.80788655, 5.32916504, 6.61248819
2.43413229, 4.06816912, 2.12720474, 2.65518361, 8.97496518, 3.65376518, 5.73585216, 15.10629008
2.26384628, 3.93700394, 1.83711731, 2.39791576, 8.48822714, 4.30697109, 4.69308001, 16.26653005
3.21714159, 4.55247186, 2.81513765, 4.19523539, 9.93352908, 6.61437828, 4.29825546, 9.76729236
3.55668385, 4.82959626, 2.77488739, 4.03112887, 10.01498877, 6.08892437, 3.95916658, 7.51664819
3.01662063, 3.89230009, 1.81659021, 2.21923410, 6.67645115, 4.15331193, 4.87596144, 9.29784921
2.61725047, 3.13049517, 1.78185297, 2.52487623, 5.22733202, 4.39602093, 6.01872079, 10.48808848
2.72488532, 3.11046620, 1.59687194, 2.46475151, 5.97076210, 4.09878031, 5.25357021, 9.28977933
3.11849323, 3.42782730, 1.66583312, 1.94935887, 6.36003145, 4.43001129, 4.04969135, 8.62699252
3.05368630, 3.39484904, 1.73205081, 1.67332005, 5.05470078, 3.89551024, 3.65718471, 7.57132749
3.89871774, 4.71963982, 2.08566536, 2.07966343, 4.36463057, 2.81957444, 4.53321078, 8.41427359
3.96232255, 4.88364618, 2.07364414, 2.36643191, 4.71963982, 3.52136337, 5.15994186, 8.88256720
2.64102253, 3.50000000, 1.77482393, 2.45458754, 4.86055552, 3.64348734, 4.86055552, 7.70227239
2.38746728, 2.91118533, 2.01866292, 2.67861905, 4.52769257, 3.98120585, 4.18628714, 7.36885337
2.84165445, 2.94957624, 1.79582850, 2.47991935, 4.21900462, 4.06816912, 4.05585996, 8.82043083
3.10644491, 3.21325380, 1.50831031, 2.09761770, 4.17731971, 3.29772649, 5.26782688, 10.12175874
2.72029410, 3.02489669, 1.63554272, 2.42899156, 4.51109743, 2.98747385, 5.88854821, 9.31262584
2.93683503, 3.04959014, 1.80277564, 2.55929678, 4.84252001, 4.04351332, 5.29150262, 7.39425453
3.01662063, 3.09838668, 1.83711731, 2.47991935, 4.97493719, 4.16833300, 4.34165867, 7.25603197
3.00416378, 3.68442669, 1.74642492, 2.22485955, 4.66100847, 3.58468967, 4.82182538, 8.46167832
3.11448230, 4.25147033, 1.77482393, 1.87749834, 4.10182886, 3.72155881, 4.90917508, 7.24568837
2.64102253, 3.61247837, 1.63554272, 1.93002591, 3.89551024, 3.31662479, 3.94017766, 9.88938825
3.48926926, 4.25440948, 1.89076704, 2.55440795, 5.08674749, 3.24037035, 3.13049517, 9.70824392
4.04660351, 4.31566913, 1.96850197, 2.85043856, 6.43234017, 3.40587727, 4.21900462, 6.29086640
3.95600809, 4.12007281, 1.71755640, 2.55440795, 5.81807528, 3.22102468, 5.12347538, 6.19879020
4.07737661, 5.57673740, 1.76068169, 2.15638587, 4.23083916, 3.77822710, 5.27019924, 8.36361166
4.12613621, 5.23450093, 2.10356840, 2.26936114, 4.72493386, 4.28660705, 5.07690851, 10.72497086
3.86975451, 4.21604080, 2.33987179, 2.60768096, 5.01996016, 3.81444622, 4.35889894, 9.98874366
3.76497012, 4.20416460, 2.00624026, 2.35584380, 4.06816912, 2.82842712, 4.68241391, 8.46315544
3.81116780, 4.33877863, 1.69558250, 1.94293592, 3.71819849, 3.49642675, 5.47950728, 9.13099118
3.17804972, 3.88908730, 1.94293592, 2.42383993, 4.37035468, 3.79802580, 5.63914887, 10.95102735
4.08656335, 4.90153037, 2.32379001, 3.12649964, 6.54408130, 3.60901649, 6.16035713, 10.64659570
4.76969601, 5.81162628, 2.37697286, 3.13847097, 7.04627561, 4.11703777, 5.91396652, 9.54986911
3.71146871, 4.66636904, 2.35053185, 3.04138127, 5.65464411, 4.69041576, 4.58802790, 9.24932430
2.87662997, 3.80460248, 2.43926218, 3.03726851, 6.03324125, 5.36423340, 4.42436436, 9.86280893
3.22490310, 4.09878031, 2.34520788, 2.87228132, 5.97285526, 4.63680925, 5.11859356, 9.53939201
3.61939221, 3.99374511, 2.04939015, 2.42383993, 4.64488966, 3.18982758, 5.08428953, 9.15559938
4.05585996, 4.06816912, 1.98746069, 2.16794834, 4.52769257, 3.38747694, 4.80104155, 9.16378743
4.41304883, 4.64488966, 2.00000000, 2.52982213, 4.57165178, 3.54964787, 5.88430115, 7.82464057
4.25440948, 4.34165867, 1.93649167, 2.59326050, 4.25734659, 3.39116499, 5.48862460, 8.33066624
3.63661931, 3.37268439, 1.83711731, 2.14476106, 4.34453680, 3.13049517, 5.22733202, 8.31264098
3.17804972, 3.85032466, 1.73205081, 1.92353841, 4.16533312, 2.95381110, 5.60133913, 6.95701085
4.80884602, 4.05585996, 1.68077363, 2.22485955, 4.57711700, 3.93064880, 4.28952212, 6.39140047
4.82441706, 3.19765539, 1.57321327, 2.32916294, 4.70372193, 4.29534632, 4.65026881, 7.48665479
3.89551024, 3.26343377, 2.01246118, 2.82842712, 5.01497757, 4.13219070, 5.68110905, 8.75357070
4.04969135, 3.38747694, 2.13892496, 3.13847097, 6.06836057, 4.23674403, 5.22494019, 8.05450185
4.09572948, 4.21900462, 1.94293592, 2.80624304, 5.76628130, 4.80104155, 4.67172345, 6.31664468
4.10791918, 4.41021541, 2.20227155, 2.91976026, 6.45174395, 5.67009700, 4.95479566, 6.80441033
3.49642675, 4.56344168, 2.47991935, 3.20936131, 7.85175140, 5.58569602, 4.83993802, 8.87552815
3.38008876, 4.66636904, 2.13892496, 2.82400425, 6.54025993, 4.26321475, 4.22788363, 8.30963296
3.66742416, 3.88265373, 1.87082869, 2.42383993, 4.77755167, 3.27871926, 5.21536192, 6.87749955
4.77231600, 3.93064880, 1.89076704, 2.28035085, 5.13809303, 3.54259792, 5.47950728, 8.34266145
4.59891292, 3.76164857, 1.94935887, 2.59807621, 5.94978991, 3.59513560, 4.39317653, 8.52203027
3.42417873, 3.65376518, 2.12132034, 3.11448230, 6.42845238, 4.08962101, 3.81772183, 6.92278846
3.38378486, 3.73162163, 1.88414437, 2.74317334, 5.69209979, 4.90407993, 3.71819849, 8.17312670
3.25960120, 4.05277683, 1.81659021, 2.60288302, 5.50681396, 5.18411034, 3.98748041, 9.39547764
3.00416378, 4.47772264, 2.07364414, 2.89395923, 6.06423944, 4.44690904, 4.25147033, 9.34612219
3.48209707, 4.76969601, 1.86413519, 2.32916294, 5.78791845, 3.79802580, 4.15030119, 9.08570305
3.91471583, 4.95227221, 1.74642492, 1.94293592, 5.26545345, 4.46094160, 4.80884602, 8.74213933
4.91934955, 4.16533312, 1.72481883, 2.01246118, 4.95479566, 4.40454311, 4.79843725, 8.58050115
5.65685425, 4.24558594, 2.01866292, 2.64575131, 5.77278096, 4.21307489, 4.98497743, 7.69415362
4.75394573, 4.64758002, 2.65047166, 3.59861084, 7.30410843, 4.70637865, 5.72057689, 7.72334125
3.74833296, 4.21010689, 2.65518361, 3.48568501, 7.49666593, 4.84252001, 5.25832673, 9.70180396
4.35315977, 4.13219070, 2.10356840, 2.84604989, 6.18667924, 4.55796007, 4.95227221, 9.65919251
4.17432629, 4.11096096, 2.02484567, 3.47491007, 6.90108687, 5.13322511, 5.15509457, 9.23444638
3.03315018, 3.90512484, 2.15638587, 3.21714159, 7.02139587, 4.97493719, 5.14538628, 8.48969964
3.45687720, 5.23688839, 2.15058132, 2.33452351, 5.85448546, 4.77231600, 5.42908832, 8.35763124
4.17133072, 5.80301646, 2.42383993, 3.10644491, 6.46529195, 5.14052526, 5.30565736, 8.15322022
4.35028735, 4.61248306, 2.44438131, 3.46410162, 6.94622199, 4.70637865, 4.71963982, 7.19548470
4.52769257, 4.00312378, 2.35053185, 3.29393382, 6.92820323, 4.77493455, 4.50555213, 8.32165849
4.19225476, 3.92746738, 2.18517734, 2.81513765, 5.95189046, 5.01248441, 4.71963982, 9.66695402
4.37892681, 4.02492236, 2.20227155, 2.63153947, 5.19855749, 4.54422711, 5.89067059, 8.84307639
4.27200187, 3.63661931, 2.25831796, 2.70647372, 5.19374624, 4.62060602, 5.62805473, 8.06380803
4.06816912, 3.45687720, 2.08566536, 2.28035085, 4.85540935, 4.65564174, 4.76707457, 8.59796488
4.89642727, 3.99061399, 1.78885438, 2.20794022, 5.00000000, 5.44747648, 5.69209979, 8.68619595
4.34453680, 3.91152144, 1.85067555, 2.23047080, 5.21536192, 5.63914887, 5.73367247, 8.51616111
3.07408523, 3.90512484, 2.15058132, 2.19658826, 5.71620503, 5.67450438, 5.03487835, 8.44245225
2.77037904, 3.60555128, 2.24722051, 2.63153947, 6.26298651, 6.17454452, 4.62331050, 8.31865374
4.06816912, 3.84057287, 2.59326050, 3.47491007, 7.66974576, 5.80732296, 5.01746948, 7.82144488
4.70903387, 5.02244960, 2.56904652, 3.57071421, 7.11688134, 4.77231600, 4.82441706, 12.18503180
4.15331193, 5.10392006, 2.04328167, 2.71569512, 5.00999002, 5.08674749, 5.49317759, 12.61348485
4.08350340, 4.60977223, 2.07966343, 2.41350368, 4.76445170, 5.64800850, 5.91819229, 8.63278634
5.34789678, 4.00936404, 2.21923410, 2.46475151, 4.58802790, 4.91172068, 4.62601340, 8.66890997
5.18893053, 3.27871926, 2.05548048, 2.40831892, 4.69308001, 4.25734659, 4.29534632, 8.34565755
4.00312378, 4.33589668, 1.92353841, 2.46981781, 4.60977223, 3.59165700, 4.85025773, 10.30897667
3.62973828, 4.71699057, 1.71755640, 2.46475151, 4.11096096, 3.57770876, 5.06211418, 10.81780939
3.24807635, 3.89551024, 1.81659021, 3.09030743, 5.65906353, 5.14295635, 4.93710441, 7.86606636
4.32723930, 3.95600809, 2.10950231, 3.15832234, 6.29483916, 5.61025846, 5.56102509, 8.21431677
6.25699608, 4.57438520, 2.09165007, 2.71569512, 5.65022123, 4.96990946, 8.68331734, 9.05124301
7.86924393, 4.92696661, 2.17370651, 2.58360214, 5.53850160, 4.76182738, 8.47791248, 15.70748229
6.96957674, 4.39602093, 2.16794834, 2.29128785, 4.56344168, 3.78813938, 5.17928567, 15.82245240
8.25075754, 3.66742416, 1.93002591, 2.36114379, 4.50000000, 3.53553391, 5.01996016, 10.18577439
9.41939489, 3.85681216, 1.88414437, 2.69722079, 5.02742479, 3.79802580, 4.55796007, 9.76857206
8.22800097, 4.00624512, 1.90394328, 2.54950976, 4.59075157, 3.60555128, 4.50555213, 7.67463354
7.77495981, 3.97806486, 2.06760731, 2.32379001, 4.84767986, 3.47131099, 5.65243310, 7.21803297
6.67645115, 4.47213595, 2.21923410, 2.98328678, 6.81909085, 4.79322438, 5.93085154, 8.75071426
6.04565960, 4.81144469, 2.17370651, 2.77037904, 5.93295879, 4.49722136, 5.37819672, 8.33666600
7.43639698, 5.07444578, 2.15058132, 2.18517734, 3.95916658, 3.27871926, 4.95227221, 7.62561473
7.37563557, 6.75647837, 2.26384628, 2.43926218, 4.78800585, 3.56370594, 5.07690851, 10.82358536
6.62570751, 6.38944442, 2.06155281, 2.68328157, 4.95227221, 3.41686991, 5.69868406, 11.43350340
7.59605161, 4.66368953, 1.96850197, 2.48997992, 4.71963982, 3.52491135, 5.45435606, 9.58775260
8.42763312, 4.07430976, 2.30217289, 2.56417628, 5.27494076, 3.96862697, 4.40454311, 8.48675439
9.22496612, 3.05368630, 2.04939015, 2.70647372, 5.25357021, 3.99374511, 4.84510062, 7.71362431
9.19782583, 3.11448230, 1.84390889, 2.62678511, 5.22494019, 4.61248306, 5.46580278, 8.71779789
8.22040145, 3.94334883, 2.39791576, 3.05777697, 6.36592491, 5.14538628, 5.69429539, 8.91487521
8.14094589, 4.68241391, 2.40831892, 2.83725219, 5.49772680, 4.25440948, 5.40832691, 9.62808392
7.52329715, 4.35028735, 2.03100960, 2.25277607, 5.12835256, 4.29534632, 5.11859356, 8.51909620
5.46351535, 3.85032466, 2.24165118, 2.55440795, 6.30872412, 5.21296461, 5.88854821, 7.14842640
4.83476990, 3.86975451, 2.27486263, 2.71569512, 5.66568619, 4.34741302, 5.99583189, 8.70344759
6.70634028, 3.86975451, 1.76776695, 2.53968502, 4.93457192, 4.44409721, 5.56776436, 9.65660396
8.07000620, 4.15632049, 1.89736660, 2.72946881, 4.49165894, 4.75920161, 6.55743852, 8.43800924
7.33314394, 4.35889894, 2.30759615, 2.86356421, 5.18893053, 3.83079626, 6.18465844, 6.87022561
6.29682460, 4.06201920, 2.00624026, 2.77488739, 5.37587202, 3.65034245, 3.76828874, 7.34166194
5.85021367, 4.17133072, 1.76776695, 2.85482048, 4.62331050, 4.47213595, 3.78153408, 6.71192968
6.82825014, 3.79143772, 1.80969611, 2.42899156, 4.26028168, 4.31566913, 4.89897949, 6.57076860
7.92779919, 3.46410162, 1.98746069, 2.36114379, 4.26321475, 3.24037035, 5.19855749, 7.09929574
7.90253124, 3.61939221, 2.02484567, 2.56904652, 5.28913982, 3.97177542, 5.74891294, 8.49705831
6.23097103, 3.02902625, 1.96214169, 2.63153947, 6.05598877, 4.38748219, 5.54752197, 10.33803656
4.46654229, 4.40454311, 2.01246118, 3.40587727, 12.48398975, 5.04479930, 4.14427316, 9.20597632
6.41872261, 5.98748695, 2.13892496, 3.45687720, 13.00961183, 5.40832691, 4.47213595, 9.73781290
7.85334324, 5.50681396, 2.35053185, 3.09434969, 8.31715095, 5.22733202, 4.83476990, 9.40877250
6.20685105, 4.16233108, 2.11541958, 2.87228132, 9.77752525, 4.60705980, 4.49444101, 7.98592512
6.09918027, 3.36154726, 1.76068169, 2.53968502, 9.43265604, 4.10487515, 4.61519230, 8.09166238
7.74919351, 3.56370594, 1.85067555, 2.88097206, 7.00535509, 4.80884602, 5.21296461, 7.19374728
8.52789540, 3.78483817, 2.06760731, 2.91976026, 6.44204936, 4.96487663, 6.08892437, 8.83176087
9.02496537, 4.10487515, 2.07966343, 2.65988722, 6.89746330, 4.51940262, 5.60580057, 8.18840644
7.47830195, 3.97492138, 1.77482393, 2.38222585, 7.24741333, 4.20713679, 5.15266921, 7.52994024
6.35609943, 3.16227766, 1.84390889, 2.58360214, 6.77126281, 4.21307489, 5.06211418, 8.78493028
6.81909085, 3.36526373, 2.15638587, 3.26343377, 7.10985232, 4.08656335, 5.04232089, 8.43208159
5.71620503, 3.57421320, 2.21359436, 3.23651047, 7.43975806, 4.42718872, 5.08920426, 8.98470923
6.38944442, 3.40954542, 2.03715488, 2.88097206, 6.11964051, 4.18927201, 4.57984716, 8.85861163
7.66485486, 3.06186218, 1.64316767, 2.88097206, 5.00000000, 3.99687378, 5.60133913, 7.58452372
7.31607818, 3.61939221, 1.87082869, 2.87662997, 5.44747648, 3.91790760, 5.94348383, 10.73661958
6.10941896, 3.51425668, 1.91702895, 2.69722079, 5.89279221, 3.57421320, 4.82182538, 10.82935825
6.29086640, 3.18590646, 2.08566536, 3.12649964, 6.42650761, 4.70372193, 5.42217668, 8.82468130
6.50576667, 3.57421320, 2.08566536, 3.07814879, 5.76844866, 4.35028735, 6.25299928, 9.95866457
6.31268564, 3.83731677, 1.73205081, 2.75680975, 5.67670679, 3.73831513, 6.03945362, 10.11681768
7.88035532, 4.28077096, 1.83030052, 2.50499501, 5.44977064, 3.92428337, 6.30476011, 8.94706656
7.78941590, 3.88587185, 1.66583312, 2.03100960, 4.18031099, 3.10241841, 5.63693179, 8.75071426
7.22495675, 4.29825546, 1.78885438, 2.15638587, 3.94651745, 3.20546408, 4.63950428, 9.66307405
6.02702248, 4.40738017, 1.83030052, 2.13892496, 3.53906767, 3.84382622, 5.25119034, 9.76473246
5.39907399, 3.40587727, 1.74642492, 2.07966343, 4.01559460, 3.95284708, 5.02244960, 10.36580918
6.33442973, 3.47131099, 2.04328167, 2.13307290, 4.81663783, 3.49284984, 4.65295605, 12.48298842
6.18263698, 3.87620949, 2.01246118, 1.92353841, 4.88108594, 3.26343377, 5.38516481, 11.22051692
6.72309453, 3.77822710, 1.75356779, 2.09165007, 4.33012702, 3.38378486, 4.94974747, 7.46659226
6.54408130, 3.89551024, 1.83030052, 2.25277607, 4.28660705, 3.39484904, 5.07198186, 9.05814551
6.65018797, 4.19821391, 1.75356779, 1.88414437, 3.97806486, 3.51425668, 5.08428953, 9.03188795
7.30581960, 4.19821391, 1.80969611, 2.00624026, 3.72827038, 3.45687720, 4.00312378, 7.86129760
6.75462804, 4.02802681, 1.88414437, 2.08566536, 3.73162163, 2.82842712, 4.76707457, 9.82725801
5.90338886, 3.84382622, 1.99374020, 2.39269722, 3.87298335, 2.90688837, 4.88620507, 8.38898087
5.51135192, 3.47491007, 2.01866292, 2.59326050, 4.07124060, 3.18982758, 4.12310563, 8.09629545
5.27494076, 3.17804972, 1.84390889, 2.13892496, 3.94017766, 3.76164857, 4.20713679, 10.14765983
8.06070717, 3.59513560, 1.81659021, 2.21359436, 4.33012702, 4.13219070, 6.47881162, 9.51183473
8.27194052, 3.98748041, 1.80969611, 2.44948974, 4.52769257, 3.88587185, 7.04982269, 11.00000000
6.02494813, 4.62331050, 1.93649167, 2.06760731, 4.08656335, 4.00312378, 6.11350963, 10.78192933
7.25258575, 4.83735465, 2.04939015, 1.89736660, 3.92109679, 3.77491722, 5.86301970, 8.24621125
10.05982107, 4.30406784, 2.11541958, 2.39791576, 4.92442890, 4.11400049, 5.14052526, 11.44443096
10.23718711, 3.81116780, 1.94293592, 2.37170825, 5.07444578, 3.98434436, 4.88364618, 12.03951826
7.64689479, 3.56019662, 1.90394328, 2.41350368, 5.26545345, 3.74833296, 4.76969601, 8.22344210
8.29608341, 3.47491007, 2.03100960, 2.68793601, 5.58345771, 4.39033028, 5.54752197, 10.24084957
10.02122747, 3.16622804, 1.83030052, 2.56417628, 4.54147553, 3.94651745, 6.14003257, 11.09279045
8.62699252, 4.02802681, 2.11541958, 2.95381110, 5.60357029, 3.70472671, 5.16236380, 8.27949274
6.12780548, 4.15932687, 2.06760731, 2.77938842, 5.33151011, 4.13219070, 4.44690904, 8.09783922
6.03324125, 3.99374511, 1.66583312, 2.39791576, 5.33619715, 4.51386752, 6.19475585, 10.84665847
7.23360215, 4.16233108, 1.86413519, 2.35584380, 5.63249501, 4.41304883, 5.90550591, 10.64307286
7.49166203, 3.06186218, 1.87082869, 1.90394328, 4.32434966, 3.89551024, 4.25147033, 7.94984277
6.44592895, 3.04138127, 1.60468065, 1.89736660, 4.12007281, 3.40587727, 4.86826458, 8.54839166
6.07865117, 3.93382765, 1.51657509, 1.99374020, 3.83079626, 3.03315018, 5.54075807, 9.07055676
8.62264461, 4.22492603, 1.93002591, 2.44948974, 5.26307895, 3.65376518, 4.70903387, 9.44589858
9.27766134, 3.69120577, 2.07364414, 2.69722079, 6.18465844, 4.28369000, 3.12249900, 8.65881054
8.16547610, 3.39116499, 1.81659021, 2.40312297, 5.18169856, 3.91152144, 3.39116499, 6.59924238
8.15475322, 3.81772183, 1.59687194, 1.88414437, 3.68781778, 3.10241841, 4.72493386, 7.58617163
6.68767523, 3.57421320, 1.87749834, 2.50499501, 4.60163015, 3.61939221, 5.79655070, 10.35857133
6.90832831, 4.21010689, 2.00000000, 2.83284309, 4.75394573, 4.33589668, 6.58217289, 10.85357084
10.04116527, 4.86569625, 2.12132034, 2.51495527, 4.20416460, 4.11400049, 7.25775447, 9.50920607
8.87411967, 4.15331193, 2.08566536, 2.44438131, 4.69308001, 3.39116499, 5.86728216, 8.55277733
7.09048658, 4.53596737, 1.92353841, 2.31300670, 4.63950428, 3.50713558, 5.23688839, 8.39344983
8.27798285, 5.24166004, 1.98746069, 2.33987179, 4.62331050, 3.69797242, 5.34322000, 8.17771362
8.14861951, 4.60705980, 1.80969611, 2.32379001, 4.26321475, 3.44963766, 3.92746738, 7.89303490
7.85015923, 3.95284708, 1.71755640, 2.45967478, 4.89131884, 3.86652299, 4.87083155, 8.15628592
6.69328021, 3.53199660, 1.84390889, 2.36114379, 4.96739368, 3.89551024, 6.83191042, 7.30581960
6.40507611, 4.12007281, 1.80969611, 2.06155281, 4.42718872, 3.51425668, 7.12214855, 8.31414457
7.41114026, 3.92746738, 1.64316767, 2.14476106, 4.62331050, 3.30529878, 5.76844866, 8.54839166
7.62889245, 2.89395923, 1.61245155, 2.45458754, 4.48887514, 4.04042077, 5.85234996, 9.88812419
6.31070519, 3.70135110, 2.06760731, 2.99583044, 4.87852437, 4.26028168, 5.85662019, 10.37786105
8.93728147, 3.92746738, 2.12720474, 2.92831009, 4.98998998, 4.21900462, 4.44128360, 9.62678555
9.20461841, 3.33916157, 2.04328167, 2.38746728, 5.26782688, 4.35028735, 4.67439836, 10.42712808
6.60870638, 3.24422564, 2.00624026, 2.37697286, 5.41987085, 3.62284419, 5.31977443, 8.39196044
6.69328021, 3.42782730, 1.85067555, 2.25831796, 4.47772264, 3.47850543, 5.03984127, 9.98123239
6.15832770, 5.14052526, 1.85067555, 2.01246118, 4.00312378, 3.62629287, 4.49165894, 11.34019400
7.55976190, 6.67083203, 2.11541958, 2.16794834, 4.31856458, 3.43511281, 4.94216552, 8.81759604
8.01405016, 5.51815186, 2.20794022, 2.24165118, 4.42153819, 3.50000000, 4.49444101, 6.70634028
5.53624421, 3.27871926, 1.69558250, 2.57390754, 5.00999002, 3.69120577, 3.45325933, 7.38071812
6.34428877, 3.11046620, 1.68077363, 2.85482048, 5.51135192, 4.21604080, 4.24264069, 8.37406711
8.34116299, 4.29243521, 1.67332005, 2.43926218, 5.15266921, 4.07124060, 4.37892681, 7.66322386
7.44143803, 4.82182538, 1.58113883, 2.38746728, 4.79843725, 3.64005494, 5.88430115, 8.25530133
6.07042008, 3.95600809, 1.91702895, 2.68328157, 4.90407993, 4.49722136, 6.33442973, 7.70876125
5.59910707, 3.87943295, 1.76068169, 2.31840462, 4.65832588, 4.21900462, 5.44288526, 7.44311763
7.55148992, 4.18330013, 1.66583312, 2.20227155, 4.22492603, 3.07814879, 4.91172068, 8.37555968
9.49473538, 4.82700735, 2.64575131, 2.50998008, 4.77755167, 3.10241841, 4.30697109, 6.88658115
7.91201618, 5.19374624, 2.80178515, 2.72946881, 4.99249437, 3.55668385, 5.76411311, 5.64579490
6.77310859, 4.01559460, 2.00000000, 2.69258240, 4.73814310, 3.43511281, 7.38410455, 10.56527330
6.71192968, 3.81444622, 3.35410197, 2.29673682, 4.84767986, 3.42052628, 6.26498204, 11.18257573
7.16763559, 4.57438520, 5.89067059, 2.78836870, 4.92696661, 3.71483512, 4.89642727, 7.88986692
8.95684096, 4.70637865, 5.31272058, 2.85482048, 4.86055552, 3.61939221, 6.17656863, 8.62699252
9.73781290, 3.76164857, 2.37170825, 2.46475151, 5.03736042, 3.84057287, 5.75760367, 9.27766134
8.11942116, 4.01559460, 1.95576072, 2.61725047, 6.30277717, 4.22788363, 4.49165894, 9.32871910
5.70964097, 4.87083155, 1.68077363, 2.42899156, 6.01664358, 3.78813938, 5.00749438, 8.78350727
6.28887907, 4.53321078, 1.58113883, 1.87082869, 3.98434436, 3.00416378, 5.00249938, 7.04627561
8.01405016, 5.04975247, 1.89736660, 1.61245155, 2.86356421, 2.93683503, 5.51588615, 9.82089609
8.57758707, 4.63950428, 1.87749834, 1.83030052, 2.98747385, 2.82842712, 5.15266921, 12.07787233
7.01605302, 3.31662479, 1.79582850, 1.95576072, 3.44601219, 2.85043856, 5.16236380, 10.15874008
5.52494344, 4.16233108, 1.86413519, 1.87749834, 4.00936404, 3.05777697, 5.31742419, 7.74273853
7.33314394, 4.43001129, 2.00000000, 2.04328167, 4.30697109, 3.21714159, 4.51940262, 8.48969964
7.25603197, 4.24852916, 1.98116128, 2.16217483, 3.60901649, 3.17017350, 5.11126208, 9.07606743
5.69209979, 4.51386752, 1.80277564, 1.99374020, 3.76164857, 3.36897611, 5.66789202, 8.01249025
6.73795221, 4.35889894, 1.82345825, 2.20794022, 4.74605099, 3.64005494, 5.28913982, 7.14667755
5.97913037, 4.48051336, 1.80969611, 2.32916294, 4.65832588, 3.82099463, 4.01870626, 8.39791641
4.56618002, 4.12613621, 1.97484177, 2.43413229, 4.62060602, 3.70472671, 5.16720427, 10.51427601
5.98122061, 3.36526373, 1.95576072, 2.42383993, 4.32434966, 3.28633535, 4.95479566, 9.36749700
6.70634028, 3.62973828, 1.87082869, 2.01866292, 3.88908730, 3.17804972, 5.15266921, 8.58778202
8.22496201, 3.71483512, 1.83030052, 1.84390889, 3.93382765, 3.09030743, 7.07460246, 9.68374927
8.39791641, 4.18927201, 1.93002591, 2.17944947, 3.81444622, 3.16622804, 7.03740009, 8.33216658
8.73927915, 4.72493386, 2.25277607, 2.31840462, 3.57071421, 2.88097206, 5.80301646, 6.33048181
7.86288751, 4.32145809, 2.05548048, 2.18517734, 3.50713558, 2.90258505, 4.69574275, 6.41677489
5.16236380, 3.80131556, 1.74642492, 2.17944947, 3.73162163, 3.11448230, 4.88108594, 8.36660027
6.08481717, 3.37638860, 1.75356779, 2.07364414, 3.68442669, 2.85919569, 5.35023364, 8.13326503
6.15020325, 3.40587727, 1.73205081, 1.97484177, 3.51069794, 3.14245127, 5.43139025, 8.55716074
6.33245608, 3.95916658, 2.01866292, 2.07966343, 3.30529878, 2.74317334, 5.41756403, 9.41939489
7.10457599, 3.74165739, 1.96850197, 2.03100960, 3.62973828, 2.68328157, 5.18893053, 8.27194052
7.28182669, 3.56019662, 1.80969611, 2.08566536, 4.29534632, 3.68781778, 5.24880939, 9.65530942
6.50000000, 3.92428337, 1.87749834, 2.07364414, 4.47772264, 3.72491611, 5.39907399, 9.07606743
6.58027355, 4.21900462, 1.69558250, 1.96214169, 4.19225476, 3.20936131, 4.97995984, 6.11964051
6.72681202, 3.76497012, 1.61245155, 2.24722051, 4.54972527, 3.64691651, 5.22972275, 5.98122061
7.01427117, 3.30529878, 1.98116128, 2.72029410, 5.46580278, 4.10182886, 5.70964097, 8.14861951
6.40897808, 3.74499666, 2.24165118, 3.61247837, 6.78785680, 4.74868403, 5.49090157, 7.75886590
6.23498196, 3.83731677, 1.86413519, 3.23264598, 5.87367006, 4.28660705, 4.56618002, 6.87204482
7.06399320, 3.62284419, 1.82345825, 2.74317334, 4.93457192, 3.29772649, 3.91152144, 9.34879671
6.00832755, 4.30987239, 2.07364414, 3.17411405, 5.55652769, 4.21307489, 5.64358042, 10.83628165
4.59347363, 4.48051336, 2.21923410, 3.35782668, 5.84380013, 4.78800585, 6.47688197, 10.36822068
5.11126208, 4.53596737, 2.25277607, 3.67763511, 7.90411285, 11.79830496, 7.24223722, 9.45780101
6.13188389, 4.47493017, 2.73861279, 4.47213595, 10.37906547, 21.48895065, 9.26147936, 9.71081871
7.30239687, 4.11096096, 2.89827535, 4.37035468, 9.55771939, 19.71420807, 8.66890997, 9.87674035
7.31607818, 4.48887514, 2.33987179, 3.02076149, 6.62004532, 12.57875193, 6.10327781, 8.81334216
6.22093241, 4.40738017, 2.28035085, 3.11046620, 6.77126281, 13.25613066, 6.03116904, 9.41142922
6.29880941, 4.29243521, 2.48495473, 3.85681216, 6.97316284, 10.77613103, 6.52878243, 9.78391537
5.83952053, 3.78813938, 2.29673682, 4.12007281, 7.90569415, 9.63716763, 5.45664732, 8.96242155
5.44977064, 3.95916658, 2.50998008, 3.92109679, 8.37406711, 7.98592512, 5.30565736, 10.58890929
5.39675829, 4.67707173, 2.51992063, 3.40220517, 6.78601503, 6.23498196, 5.94978991, 10.23352334
6.11759757, 5.31036722, 2.71569512, 4.20119031, 7.97652807, 7.24051103, 5.83952053, 10.03244736
6.99285349, 5.00499750, 3.18198052, 4.50000000, 8.24772696, 7.91517530, 5.70964097, 10.04241007
8.33216658, 4.59891292, 3.51069794, 4.66100847, 9.24391692, 10.64189833, 5.41063767, 11.20937108
8.02184517, 4.55247186, 3.40954542, 4.92950302, 10.29320164, 10.22863627, 5.25832673, 10.23962890
7.24913788, 3.84707681, 2.73861279, 4.31277173, 8.24014563, 6.52878243, 4.18031099, 6.87204482
8.37108117, 3.54612465, 2.52982213, 4.39317653, 9.39813811, 7.95455844, 4.83735465, 7.90094931
7.85175140, 4.39602093, 2.65518361, 4.95731782, 10.38989894, 8.79772698, 6.07042008, 8.28100235
7.26119825, 5.19133894, 2.70647372, 4.71168760, 9.36215787, 8.93728147, 5.24166004, 8.75928079
6.15020325, 4.53872229, 2.41350368, 3.63318042, 7.82304289, 8.54107722, 5.58793343, 9.11043358
5.94558660, 4.57711700, 2.69722079, 3.36154726, 6.76941652, 6.32850693, 6.43039657, 8.25832913
6.87204482, 4.47213595, 2.70185122, 3.55316760, 7.13267131, 5.83095189, 5.80947502, 7.42798761
7.42630460, 4.14728827, 2.19089023, 3.65718471, 7.74435278, 5.94768863, 5.81162628, 9.44325156
6.87204482, 4.41304883, 2.06760731, 3.43147199, 7.53160010, 5.86515132, 5.69429539, 9.86787718
7.41956872, 4.17133072, 2.07364414, 2.95381110, 5.83952053, 5.88430115, 5.78575838, 11.09504394
8.05450185, 5.35490429, 2.31300670, 2.77938842, 5.06458290, 5.24642736, 6.01456565, 11.57151675
7.50166648, 5.52268051, 2.46475151, 2.96226265, 5.67450438, 5.79655070, 4.95731782, 8.81476035
6.74166152, 4.48887514, 2.50998008, 3.58120092, 6.72309453, 7.84059947, 5.10636857, 7.40439059
6.43428318, 4.02492236, 2.31840462, 3.32791226, 5.99583189, 7.07813535, 4.60705980, 7.06045324
8.07774721, 4.54147553, 1.94935887, 2.88097206, 5.64358042, 6.65394620, 3.83405790, 7.83262408
8.83600589, 5.04232089, 2.01246118, 2.82400425, 5.77711000, 7.07813535, 5.15751878, 9.19782583
7.77656737, 4.08350340, 2.24165118, 2.68328157, 5.27257053, 5.40370243, 6.44204936, 11.15795680
6.03531275, 3.17411405, 2.18517734, 2.56417628, 5.01746948, 4.53045252, 5.66347950, 12.33389638
7.74758027, 3.92428337, 1.93649167, 2.51992063, 4.62601340, 5.14052526, 4.26321475, 10.95673309
8.55716074, 4.52769257, 2.17370651, 2.81069386, 5.74020906, 5.42448154, 4.44128360, 8.19298480
7.31436942, 4.11703777, 2.60288302, 3.29013678, 6.77679865, 4.57711700, 5.44747648, 8.87693641
8.48233458, 3.75166630, 2.47487373, 3.15436206, 6.17454452, 4.23674403, 6.07453702, 9.85266461
8.48528137, 3.94651745, 2.12720474, 2.45967478, 5.21296461, 3.60555128, 4.88364618, 8.11788150
7.88352713, 3.65718471, 1.96850197, 2.54950976, 5.64358042, 4.29243521, 4.52769257, 7.82464057
7.77174369, 3.17804972, 1.70293864, 2.37697286, 5.06211418, 4.23379263, 4.91426495, 9.13099118
6.91556216, 3.00832179, 2.15638587, 2.73861279, 4.70637865, 3.61939221, 5.10147038, 9.18694726
6.31664468, 3.07814879, 2.23606798, 2.87662997, 4.69574275, 3.82753184, 5.20816666, 8.81334216
5.50227226, 3.54612465, 1.91049732, 2.45967478, 4.50832563, 4.24852916, 6.27295784, 10.90985793
7.29897253, 3.70809924, 2.26384628, 3.37638860, 6.19071886, 6.03738354, 6.17049431, 10.83858847
8.17618493, 4.15030119, 2.33452351, 3.61593695, 7.01605302, 6.62947962, 5.39444158, 9.83742853
6.71751442, 4.35603030, 2.16794834, 3.13847097, 5.99791630, 5.06211418, 6.24499800, 9.81070844
7.01427117, 4.77755167, 2.10356840, 2.87662997, 5.33385414, 3.99374511, 5.29858472, 9.70438045
7.18853253, 4.46654229, 2.23606798, 2.96226265, 6.78601503, 5.14052526, 5.56551884, 10.85817664
6.95701085, 3.58468967, 2.17370651, 3.00832179, 6.49230314, 4.72493386, 6.74351540, 11.63829884
6.46529195, 4.71433983, 2.05548048, 2.97909382, 5.69429539, 4.00312378, 6.16846821, 10.53565375
9.06504275, 4.79843725, 2.08566536, 2.77488739, 6.02079729, 4.74868403, 6.33640276, 8.70631954
11.21494539, 3.72827038, 1.94293592, 2.24165118, 4.80104155, 4.39317653, 6.45368112, 8.74356907
8.25530133, 4.00000000, 2.16794834, 2.96226265, 4.88876262, 4.06201920, 5.80947502, 8.29909634
5.51588615, 4.10791918, 2.32916294, 3.18982758, 5.23450093, 4.09878031, 4.72493386, 7.19200945
6.06423944, 3.91790760, 2.07966343, 2.72029410, 5.16962281, 4.24558594, 4.97242396, 8.76641318
6.23698645, 4.05277683, 1.94935887, 2.89395923, 6.12576526, 4.86312657, 4.89131884, 10.21028893
7.07106781, 3.62973828, 1.91049732, 2.81069386, 5.71839138, 4.00624512, 4.90662817, 11.95198728
8.56592085, 3.67083097, 2.08566536, 2.33987179, 4.85025773, 3.74165739, 4.78539445, 12.41672259
7.36885337, 3.76164857, 2.13307290, 2.54950976, 5.54075807, 4.92188988, 4.50277692, 10.02122747
8.21279490, 3.47131099, 1.78885438, 2.36114379, 5.01996016, 4.44128360, 5.66568619, 9.98749218
9.83869910, 3.17804972, 1.82345825, 2.16217483, 4.13521463, 3.66401419, 5.88005102, 10.75871740
8.58778202, 3.76164857, 2.11541958, 2.31300670, 4.44409721, 3.54612465, 5.75543222, 10.17840852
9.17060521, 4.58530261, 1.94293592, 2.23047080, 4.90153037, 3.94651745, 5.31507291, 9.54070228
8.42169817, 4.24264069, 1.80969611, 2.62678511, 4.81144469, 4.67974358, 5.69429539, 8.89381808
6.41092817, 4.09267639, 1.68077363, 2.46475151, 4.00312378, 3.94017766, 6.41872261, 7.83581521
7.08166647, 4.94469413, 1.91049732, 2.28035085, 4.18031099, 3.53553391, 6.07247890, 7.44983221
7.90411285, 5.23688839, 2.20227155, 2.78836870, 5.33619715, 4.17432629, 5.38748550, 8.86284379
6.98569968, 4.92696661, 2.12132034, 2.85919569, 6.10327781, 4.33301281, 5.41063767, 10.22496944
5.90550591, 4.46094160, 2.05548048, 2.80178515, 6.23097103, 4.28369000, 6.44204936, 11.26499001
5.89491306, 4.97744915, 2.11541958, 2.79284801, 6.04359165, 4.46094160, 5.77494589, 9.33943253
7.00178549, 5.23688839, 2.16217483, 2.83284309, 5.46122697, 4.53872229, 3.40954542, 6.78048671
7.88352713, 3.90832445, 2.85482048, 2.79732015, 5.07690851, 4.14728827, 3.42052628, 8.07774721
7.43303437, 4.31856458, 2.94108823, 2.61247010, 5.09901951, 4.02181551, 5.65022123, 9.79157801
7.36885337, 5.48862460, 2.13307290, 2.83725219, 5.76628130, 5.47265932, 6.70261143, 9.46308618
6.69141241, 5.02493781, 2.85919569, 4.21307489, 9.78008180, 7.82304289, 6.50576667, 9.05400464
5.98539890, 4.50555213, 3.46770818, 5.02742479, 11.75478626, 9.40079784, 6.55553202, 8.44985207
5.42678542, 4.78800585, 3.43511281, 5.37587202, 12.10268565, 9.33541643, 5.61693867, 6.93361378
6.29483916, 4.64488966, 3.80788655, 4.69041576, 10.02122747, 7.61248974, 4.61789996, 8.72782905
6.71192968, 6.12372436, 4.35603030, 4.55796007, 8.10246876, 7.10809398, 4.88620507, 10.48451239
4.52216762, 6.08481717, 4.09572948, 5.04975247, 11.77072640, 8.22344210, 5.60580057, 10.55935604
2.22485955, 3.82426464, 3.48926926, 5.04727649, 12.80039062, 8.21127274, 5.66789202, 10.96129554
3.69797242, 3.01662063, 3.03726851, 4.95479566, 12.91994582, 6.69701426, 7.17286554, 10.31018914
4.27492690, 3.08625987, 2.74317334, 3.89230009, 13.73590186, 4.92950302, 7.92622230, 8.41278789
3.25960120, 3.03315018, 2.31840462, 3.32415403, 14.71988451, 4.50000000, 6.57457223, 9.56556323
4.41871022, 2.32916294, 2.52487623, 3.44963766, 15.25778490, 4.25734659, 6.27495020, 10.71447619
4.80624594, 2.56417628, 2.69258240, 3.09030743, 16.51817181, 4.34165867, 5.88854821, 10.05360632
3.48926926, 2.81957444, 2.23606798, 2.68328157, 14.57051818, 4.03732585, 5.17928567, 9.61899163
3.09434969, 2.24722051, 2.06760731, 2.65988722, 10.18822850, 4.26907484, 5.28441104, 10.26157883
2.90688837, 2.39791576, 2.01866292, 2.84604989, 11.58015544, 4.99749937, 5.25832673, 11.32033568
6.86112236, 2.81957444, 2.21359436, 2.89827535, 11.83744060, 4.33012702, 5.48634669, 10.74941859
6.98212002, 2.70647372, 2.22485955, 2.67394839, 11.81947545, 4.94974747, 6.12372436, 8.51616111
2.94533530, 2.64102253, 2.31300670, 3.35782668, 12.51898558, 5.65685425, 6.84835747, 9.62548700
4.83476990, 2.55440795, 2.31840462, 3.51781182, 11.13103769, 4.62331050, 6.37181293, 11.15011211
5.12347538, 2.55929678, 2.17370651, 3.25192251, 8.49558709, 4.21604080, 4.56618002, 9.38216393
4.77493455, 2.41350368, 2.24722051, 3.15436206, 8.11326075, 5.20336430, 4.93203812, 9.81453004
5.78359750, 2.42899156, 2.55440795, 3.42417873, 10.28469737, 5.72494541, 5.32447180, 9.33541643
4.48887514, 2.28035085, 2.61247010, 3.71483512, 11.16355678, 5.67890835, 4.88364618, 6.28291334
2.07364414, 1.98746069, 2.32379001, 4.26907484, 10.78308861, 6.32455532, 5.07198186, 6.53643634
2.53475837, 2.74317334, 2.41867732, 4.16833300, 12.54192968, 5.94978991, 4.44409721, 7.55976190
4.27200187, 2.98328678, 2.54460213, 3.76497012, 13.33697867, 5.34555890, 5.49317759, 10.35736453
4.23379263, 2.85919569, 2.35053185, 4.06201920, 14.83323970, 6.40312424, 6.25899353, 10.30776406
2.52982213, 3.29393382, 2.81957444, 4.48887514, 17.00147052, 7.95927132, 4.85798312, 8.50588032
2.18517734, 3.68103246, 3.94968353, 5.75543222, 18.01110768, 10.84435337, 5.28441104, 6.60113627
3.70135110, 5.12835256, 5.27967802, 7.46156820, 19.32032608, 12.95279893, 7.12916545, 5.44518136
6.21288983, 6.40702739, 4.97242396, 8.03896760, 20.59732992, 10.76104084, 6.98032951, 10.12299363
7.19200945, 6.12168278, 3.45687720, 7.00713922, 21.36527557, 8.30210817, 5.29622507, 10.53209381
7.87718224, 7.07636913, 3.95916658, 6.00832755, 20.69722204, 9.59557190, 5.83737955, 8.76213444
6.71751442, 6.35413251, 4.36749356, 6.26099034, 18.65006702, 10.00000000, 6.24699928, 8.99166281
3.01662063, 3.43874977, 3.51425668, 5.47265932, 16.42635078, 9.56817642, 4.87083155, 9.05814551
3.22877686, 4.03112887, 2.93257566, 3.75166630, 14.89882546, 8.61394219, 3.99061399, 8.34715520
6.24099351, 5.32681894, 5.00499750, 7.55479980, 18.44180035, 12.47297078, 5.17204022, 8.10863737
6.48074070, 6.77679865, 5.86088730, 9.92219734, 22.35117447, 13.46476884, 5.47265932, 9.82598596
3.86652299, 6.07453702, 4.08044115, 7.46659226, 20.99821421, 9.04571722, 4.16233108, 8.54107722
3.14642654, 4.20713679, 3.39116499, 5.02493781, 18.18378398, 8.07929452, 6.41872261, 7.86765531
4.40170422, 4.28077096, 3.68781778, 5.73585216, 18.67886506, 9.09945053, 8.57758707, 10.52140675
4.53045252, 4.19225476, 2.84604989, 5.09901951, 16.62302620, 8.19145897, 7.24223722, 10.23108010
7.12214855, 3.90512484, 2.26936114, 3.71819849, 11.65439831, 9.29784921, 4.23379263, 8.84024887
8.50734976, 4.82959626, 2.52487623, 3.67083097, 11.10630452, 9.98624053, 5.18169856, 8.78066057
6.65018797, 5.16236380, 2.94533530, 4.07124060, 11.57259694, 10.19068202, 6.47881162, 9.02911956
6.23297682, 7.65506368, 2.83725219, 3.72827038, 11.79618582, 9.40345681, 5.84593876, 8.39047079
5.47037476, 7.45654075, 2.51992063, 3.30529878, 11.79830496, 7.95770067, 5.49772680, 8.24317900
3.64348734, 4.39886349, 2.07966343, 2.76586334, 13.39496174, 9.12962212, 5.40832691, 7.67463354
3.85681216, 6.01040764, 2.19658826, 3.93382765, 14.40659571, 9.76089135, 5.77927331, 6.56696277
6.40702739, 6.34231819, 3.08220700, 4.52493094, 14.43606595, 16.42330661, 8.52349693, 10.36942621
6.24299608, 4.65564174, 3.18198052, 4.16833300, 14.34573107, 17.21118822, 8.35463943, 12.68956264
3.55668385, 4.27200187, 2.31300670, 3.60901649, 13.01345458, 10.28348190, 5.61693867, 10.75058138
3.66401419, 4.47493017, 2.16794834, 3.30151480, 13.00288430, 11.25944048, 5.42908832, 7.94984277
4.68508271, 3.29013678, 2.38222585, 3.38378486, 15.54831181, 11.62755348, 5.37819672, 8.32015625
6.34822810, 3.00000000, 2.15058132, 3.22877686, 14.61249465, 8.12249962, 5.18893053, 9.69020124
6.70820393, 3.26343377, 2.36114379, 3.51425668, 12.77497554, 8.37705199, 5.59687413, 11.01816682
5.17204022, 2.98328678, 2.31840462, 3.75832409, 15.83824485, 9.39281640, 5.63914887, 10.07596149
5.26307895, 2.80624304, 1.87082869, 3.43147199, 14.85092590, 7.78781099, 4.88108594, 9.53414915
5.00249938, 2.82400425, 2.21359436, 3.34290293, 14.03655941, 8.02651855, 4.39886349, 10.02746229
5.73803102, 2.90258505, 2.36643191, 2.94533530, 14.47411483, 7.65832880, 5.07937004, 8.60232527
6.57076860, 2.84165445, 2.07966343, 2.26936114, 11.98853619, 3.67763511, 4.41871022, 6.91194618
5.00000000, 2.77938842, 1.83711731, 2.64575131, 14.15185500, 5.85448546, 4.22196637, 9.35547968
3.78153408, 2.56904652, 2.33987179, 3.70809924, 16.39359631, 7.52994024, 5.65243310, 10.29198717
2.41350368, 2.33452351, 2.61247010, 4.15331193, 14.23024947, 6.97853853, 5.53398591, 9.21547611
2.74317334, 2.30217289, 2.44438131, 3.42052628, 11.77815775, 5.38980519, 4.80624594, 9.08019824
4.10791918, 2.50998008, 2.41867732, 3.31285375, 16.78019666, 5.85662019, 4.37892681, 6.96060342
6.33640276, 2.88530761, 2.43413229, 4.16533312, 16.38596961, 6.92820323, 4.57984716, 9.37816613
5.88642506, 2.69722079, 2.60288302, 4.07737661, 13.06043644, 6.07247890, 5.89491306, 11.18257573
5.51135192, 2.95803989, 2.45967478, 3.53199660, 14.91391967, 5.29386437, 6.01456565, 9.11180553
5.60802996, 3.39116499, 3.03315018, 3.48568501, 14.63215637, 5.14052526, 6.39531078, 9.70051545
4.78800585, 2.97909382, 3.42782730, 4.21900462, 13.89874095, 5.03239506, 6.70261143, 12.47998397
4.55521679, 2.82400425, 3.20936131, 4.51940262, 16.22883237, 4.93203812, 5.73803102, 11.29048272
4.43283205, 2.79732015, 3.40954542, 3.76497012, 20.26881842, 5.71182983, 4.43846820, 10.07472084
4.43565102, 2.46475151, 2.95381110, 3.51425668, 17.04772712, 6.35806574, 2.88097206, 9.50526170
3.08220700, 2.48495473, 2.69722079, 3.76497012, 12.06337432, 5.87367006, 4.06201920, 8.33366666
3.19374388, 2.72029410, 2.70647372, 3.22102468, 11.61895004, 4.37607130, 4.81663783, 8.74070935
5.93506529, 2.67861905, 2.01866292, 2.87228132, 9.49868412, 3.53199660, 5.04232089, 9.56948274
6.34231819, 2.55440795, 2.72488532, 3.01247407, 9.97622173, 4.73286383, 5.34088008, 11.40723455
7.15192282, 2.17944947, 2.94108823, 2.50499501, 8.46906134, 4.26028168, 5.14538628, 10.67005155
9.05952537, 2.17944947, 3.01247407, 2.64102253, 7.45989276, 3.15039680, 4.91426495, 9.59426912
7.29897253, 3.14642654, 3.19374388, 3.25960120, 9.01942348, 4.09267639, 4.34453680, 8.64725390
5.08674749, 3.26343377, 2.66926956, 3.14642654, 8.27798285, 4.43001129, 4.14125585, 8.82326470
6.88113363, 2.58360214, 2.53968502, 2.84604989, 9.42470159, 4.57984716, 5.19133894, 9.28708781
7.27495704, 2.46981781, 2.72488532, 3.13448560, 10.73079680, 5.05222723, 5.50227226, 8.41130192
5.35256948, 2.37697286, 2.86792608, 2.99583044, 9.23173873, 4.63141447, 5.03984127, 10.64072366
4.31566913, 2.03715488, 2.91547595, 2.40312297, 9.28977933, 4.06201920, 5.62138773, 10.91673028
5.66568619, 2.26936114, 3.15436206, 2.58360214, 9.72239682, 4.12613621, 5.89915248, 10.13533423
6.20080640, 2.52982213, 2.94957624, 2.95803989, 8.93308457, 3.77160443, 5.21775814, 11.35561535
5.11126208, 2.33452351, 2.31300670, 2.77488739, 8.59505672, 3.82753184, 5.42678542, 10.93960694
4.69308001, 3.58120092, 2.72488532, 2.44438131, 8.17159715, 4.37035468, 5.47265932, 9.95113059
4.86826458, 3.75499667, 3.06186218, 2.25277607, 7.53823587, 3.71819849, 4.22492603, 11.12879149
5.32916504, 2.66458252, 2.94533530, 2.59326050, 7.55645419, 3.21714159, 4.67439836, 13.65558494
4.50555213, 2.15638587, 3.61939221, 3.72155881, 10.34287194, 5.47950728, 6.40312424, 12.84815162
5.34088008, 2.12132034, 4.32145809, 4.53872229, 12.69153261, 7.50333259, 6.30476011, 11.02383781
5.61471282, 2.44438131, 3.84057287, 4.05894075, 10.65598423, 6.36788819, 5.51815186, 10.46183540
4.90662817, 2.59326050, 3.35037311, 3.70809924, 8.50441062, 3.91471583, 5.19374624, 7.82464057
4.54972527, 2.53475837, 3.68442669, 3.77160443, 8.70201126, 4.26907484, 5.69429539, 8.96381615
4.77493455, 2.50499501, 3.36897611, 4.12007281, 8.41872912, 5.64358042, 5.96447818, 9.72496787
5.02742479, 2.97909382, 2.74317334, 3.97806486, 8.97496518, 5.82022336, 5.11859356, 7.18331400
4.32434966, 3.46049129, 2.43926218, 3.37268439, 9.63457316, 7.53989390, 5.31742419, 6.51536645
6.40312424, 3.29013678, 2.45458754, 3.62973828, 10.07348003, 8.11480129, 6.73424086, 10.63249735
6.94262198, 2.85919569, 2.42383993, 3.19374388, 9.17060521, 5.51361950, 6.83008053, 12.24336555
5.90762220, 2.91547595, 2.38222585, 2.76134025, 7.16763559, 4.46094160, 5.51361950, 9.66953980
6.15832770, 2.91118533, 2.16217483, 2.46475151, 6.68019461, 4.74605099, 4.73814310, 8.72496418
5.80301646, 3.28633535, 2.15638587, 3.06186218, 8.21583836, 4.43565102, 5.39907399, 8.61394219
7.16240183, 3.42417873, 2.31300670, 3.11849323, 7.63708059, 4.30697109, 5.76844866, 8.96521054
7.95612971, 4.02492236, 2.33452351, 2.50000000, 6.62947962, 4.03112887, 4.98748434, 11.75478626
5.83952053, 4.16533312, 2.37170825, 2.47487373, 6.94622199, 3.41686991, 5.26070338, 11.97288603
6.09918027, 3.92746738, 2.02484567, 2.54950976, 5.74456265, 3.62973828, 4.93203812, 9.73267692
8.21735967, 4.21307489, 2.13307290, 2.59807621, 6.53452370, 3.42782730, 4.64758002, 9.22496612
8.66890997, 4.71963982, 2.38222585, 2.28035085, 7.31436942, 3.09838668, 5.77711000, 8.86989290
8.36361166, 4.53045252, 2.38746728, 2.24165118, 7.20416546, 3.10241841, 5.53850160, 8.04518490
8.11171992, 3.76164857, 2.32916294, 2.21923410, 6.81175455, 3.81444622, 4.70106371, 9.23444638
7.13967786, 3.70135110, 1.98746069, 2.23606798, 7.79743548, 5.89915248, 4.66368953, 10.73196161
6.67832314, 3.30151480, 1.80277564, 2.17370651, 8.29005428, 5.61025846, 5.65243310, 9.06642157
5.93506529, 4.17133072, 5.86515132, 3.02902625, 7.39932429, 4.56070170, 5.30801281, 9.68504001
4.49165894, 3.91471583, 7.31266025, 3.25576412, 6.50576667, 4.94469413, 3.37268439, 10.07099796
5.65906353, 2.62202212, 5.73803102, 2.91976026, 6.41482658, 4.13521463, 4.55521679, 7.62725377
5.99166087, 4.31856458, 5.30094331, 2.92831009, 7.58617163, 4.96235831, 5.94348383, 8.86284379
6.95701085, 4.74868403, 5.69429539, 4.07124060, 9.96619285, 8.56446145, 5.90973773, 9.81835017
6.44980620, 3.72827038, 4.38748219, 4.80624594, 11.58015544, 9.31262584, 6.24899992, 9.10219754
4.18031099, 3.31662479, 2.36643191, 4.14728827, 10.53684013, 7.55148992, 6.18869938, 9.42072184
5.91185250, 3.38378486, 2.29673682, 3.25192251, 8.01249025, 5.93085154, 5.19133894, 9.57078889
5.22494019, 3.10644491, 2.42899156, 2.68328157, 7.44143803, 4.49444101, 4.54422711, 8.27345152
5.20576603, 3.33541602, 2.41867732, 2.81069386, 7.82783495, 4.28660705, 5.17445649, 7.90253124
6.78048671, 3.30529878, 2.09165007, 2.54950976, 6.55743852, 4.10487515, 5.28204506, 7.54817859
5.82451715, 2.98747385, 1.74642492, 2.12132034, 6.21691242, 4.59891292, 4.07737661, 9.10219754
6.58596994, 2.98328678, 1.69558250, 2.43413229, 7.20590036, 4.83476990, 4.29243521, 10.51784198
6.43428318, 3.60555128, 2.23606798, 2.64102253, 6.90289794, 5.03736042, 5.06705042, 8.94427191
4.75920161, 3.52845575, 2.35053185, 2.24165118, 5.92452530, 4.71963982, 4.62331050, 8.35314312
6.20483682, 3.23651047, 2.77938842, 2.13307290, 5.57449549, 3.86975451, 4.11096096, 7.76047679
5.64579490, 3.42417873, 2.73404462, 2.37170825, 5.64136508, 3.33541602, 5.37354632, 9.95991968
4.79061583, 2.35584380, 2.51495527, 2.42383993, 5.98539890, 3.14245127, 5.70964097, 11.86802427
5.03487835, 2.36643191, 2.53968502, 2.40312297, 6.00832755, 3.40220517, 5.28913982, 10.97611042
7.07106781, 2.81069386, 2.17370651, 2.19089023, 6.72681202, 4.34741302, 5.63914887, 10.64307286
8.26438140, 2.36114379, 2.09165007, 1.91049732, 6.73609679, 4.19225476, 5.53624421, 9.98373678
7.39594483, 3.00000000, 1.80277564, 1.87082869, 6.02702248, 3.10644491, 5.81807528, 8.95404936
6.35609943, 3.86652299, 2.09165007, 2.15638587, 5.61916364, 3.23264598, 5.47037476, 8.43356390
7.18853253, 3.63318042, 1.94935887, 1.91702895, 5.19133894, 3.06186218, 4.80364445, 8.93168517
6.68393597, 2.70647372, 2.01866292, 1.83711731, 6.51152824, 3.17017350, 4.78016736, 9.83742853
3.86005181, 2.54950976, 2.40312297, 2.25831796, 7.24051103, 3.98120585, 4.63411264, 12.71023210
4.86569625, 3.18198052, 2.16217483, 2.38746728, 5.71620503, 4.01559460, 4.74078053, 12.90251913
6.60113627, 3.51781182, 1.91702895, 2.25831796, 4.92950302, 3.37268439, 4.98748434, 10.96471614
7.39425453, 3.17804972, 1.99374020, 2.07966343, 5.15751878, 2.92403830, 5.01248441, 11.39188308
8.72639674, 2.57390754, 1.87082869, 1.94935887, 4.92188988, 2.94957624, 4.85025773, 10.92817460
8.22040145, 2.69722079, 1.68819430, 2.05548048, 5.17928567, 3.29772649, 6.24699928, 9.37149935
5.37819672, 2.82400425, 1.94293592, 2.17944947, 6.85018248, 3.45687720, 6.58596994, 9.24662100
6.48652449, 2.53968502, 2.16217483, 2.41350368, 7.20763484, 3.44238290, 6.20483682, 9.52627944
6.37181293, 2.39269722, 2.19089023, 2.40312297, 5.86515132, 4.26614580, 5.25832673, 9.75832978
4.04042077, 2.57390754, 2.21923410, 2.28035085, 5.35957088, 4.09572948, 5.47494292, 9.73909647
5.24404424, 2.61725047, 2.24165118, 2.89395923, 7.70227239, 3.13847097, 5.95189046, 9.33005895
5.85875413, 2.48997992, 2.12720474, 2.74317334, 8.09783922, 2.89827535, 5.00000000, 10.31624932
7.54652238, 2.19089023, 2.72029410, 2.18517734, 7.48164420, 2.67394839, 5.70964097, 11.13889582
7.76852624, 2.40831892, 2.92831009, 2.03715488, 6.57647322, 2.98747385, 5.49772680, 9.73396117
6.46722506, 2.74317334, 2.46981781, 1.95576072, 4.69041576, 3.84707681, 4.87339717, 9.08707874
6.26099034, 2.80178515, 2.15058132, 2.12720474, 6.29483916, 4.91426495, 4.49722136, 9.70051545
4.82700735, 2.53968502, 1.96214169, 2.12132034, 6.58027355, 4.94469413, 3.97177542, 8.10092587
5.64358042, 2.78388218, 2.03100960, 2.03100960, 5.69868406, 4.11400049, 4.97744915, 7.34846923
7.55810823, 2.78388218, 2.11541958, 2.24165118, 6.27495020, 3.54259792, 6.02287307, 9.20461841
6.75832820, 2.50998008, 2.16794834, 2.14476106, 5.92030405, 3.41686991, 6.36003145, 11.00795167
4.84252001, 2.92831009, 2.05548048, 1.82345825, 5.81162628, 4.80624594, 5.83309523, 9.71596624
5.43829017, 2.93683503, 1.96850197, 1.86413519, 5.20096145, 4.68508271, 5.24404424, 7.43471587
5.76194412, 2.74772633, 1.89076704, 1.75356779, 4.37035468, 2.96226265, 6.20886463, 9.39813811
6.69141241, 2.48997992, 1.77482393, 1.89736660, 7.05336799, 3.29393382, 6.91556216, 9.70051545
7.26464039, 2.17370651, 1.84390889, 1.89076704, 7.34166194, 3.15832234, 6.18869938, 8.91767907
8.84166274, 1.92353841, 1.88414437, 2.14476106, 8.51175658, 3.09434969, 4.54422711, 8.85720046
9.28439551, 2.42899156, 1.95576072, 2.21923410, 9.14056891, 3.56019662, 5.13322511, 7.47328576
6.74907401, 2.39269722, 1.87082869, 2.06155281, 6.73052747, 3.24807635, 6.29086640, 8.29306940
7.50333259, 2.03715488, 2.01246118, 1.97484177, 5.93506529, 4.41588043, 6.17656863, 11.33798924
8.36361166, 2.55440795, 2.05548048, 1.93649167, 6.63513376, 4.92696661, 5.72494541, 12.47798061
7.40945342, 3.17411405, 1.91049732, 2.12720474, 8.70201126, 6.26897121, 5.60133913, 12.58471295
7.07990113, 3.09030743, 2.07966343, 2.42383993, 8.42021377, 7.04804938, 7.60920495, 12.63823564
8.47348807, 2.72946881, 2.10356840, 3.13847097, 8.51616111, 9.27496631, 7.61905506, 11.61895004
8.80482822, 3.73496988, 2.12720474, 3.14642654, 10.28105053, 10.11434625, 5.44977064, 10.18331969
6.09918027, 4.74605099, 2.02484567, 2.79732015, 12.35718415, 7.25603197, 5.17204022, 11.72817121
8.18077013, 5.03239506, 2.46475151, 3.56721180, 15.42400726, 8.89522344, 5.82666285, 11.63722476
8.46315544, 4.70106371, 2.61247010, 3.94651745, 16.30797351, 10.16243081, 5.08183038, 8.41278789
4.68774999, 4.39886349, 2.58360214, 3.82753184, 20.32547662, 9.54201237, 5.50681396, 8.99305287
7.34506637, 4.71168760, 2.62678511, 3.39852909, 19.65324401, 10.03867521, 6.94982014, 11.26942767
7.79583222, 3.94968353, 2.08566536, 2.65047166, 14.29248054, 10.15997047, 7.28354309, 11.93524193
5.76411311, 3.24807635, 1.90394328, 2.54950976, 12.91801068, 10.84781084, 6.25099992, 12.21986088
7.17635005, 3.53199660, 2.04328167, 2.80178515, 10.27618606, 10.26523258, 6.37965516, 10.93160555
7.87718224, 4.60977223, 2.22485955, 3.00832179, 10.08340220, 10.28105053, 6.89202438, 8.94427191
7.74273853, 4.82959626, 2.13892496, 3.08220700, 10.87083253, 10.44509454, 5.34088008, 9.29381515
7.53657747, 3.86652299, 1.79582850, 3.04548847, 10.50951949, 8.90224691, 5.96866819, 10.45944549
7.82144488, 3.71819849, 1.99374020, 2.90258505, 8.51909620, 9.41806774, 7.20069441, 11.01703227
11.41599755, 3.83731677, 2.10950231, 2.73404462, 8.10401135, 10.78192933, 6.83373983, 10.34770506
11.01249291, 4.33012702, 1.99374020, 2.39269722, 9.67470930, 10.42592922, 6.14206806, 11.13103769
7.27839268, 4.12310563, 1.94293592, 2.26936114, 8.57467201, 10.25060974, 5.56776436, 10.09207610
6.08892437, 3.33166625, 1.83711731, 2.36114379, 7.45654075, 10.39831717, 5.70526073, 8.08702665
7.09753478, 3.65718471, 1.83711731, 2.23047080, 8.67035178, 9.72625313, 5.53850160, 7.82943165
7.09401156, 4.44690904, 1.93002591, 2.15058132, 9.41806774, 10.23718711, 4.96235831, 7.36036684
7.37224525, 4.91934955, 1.80277564, 2.33452351, 8.10709566, 9.59817691, 5.26070338, 7.26808090
8.45428885, 4.43565102, 1.73205081, 2.47487373, 6.45368112, 9.70824392, 4.56891672, 8.20822758
8.93168517, 3.76828874, 1.78885438, 2.19089023, 6.36592491, 9.47364766, 4.57984716, 8.88397434
7.79262472, 3.87943295, 1.83030052, 2.15058132, 8.11942116, 10.28469737, 5.59464029, 10.49761878
6.90108687, 4.21604080, 1.76776695, 1.96850197, 7.20590036, 10.57236965, 7.30581960, 10.42353107
9.12003289, 3.96862697, 1.56524758, 1.61245155, 4.62060602, 8.68331734, 7.19548470, 8.22040145
7.32290926, 2.97069016, 1.83030052, 2.03100960, 5.51588615, 9.09807672, 4.67707173, 7.99374756
6.14206806, 3.03726851, 1.78885438, 2.46981781, 6.66145630, 10.13039979, 4.45813863, 9.06504275
8.01560977, 3.92428337, 1.80277564, 2.63153947, 6.76756973, 10.15627885, 4.93963561, 10.59008971
9.49210198, 4.16533312, 2.03715488, 2.42383993, 4.96739368, 8.94706656, 5.11126208, 9.86534338
9.35414347, 4.21900462, 1.71755640, 2.01866292, 4.93203812, 7.36376263, 5.10147038, 8.43800924
7.09224929, 4.09572948, 1.42302495, 1.73925271, 4.91426495, 7.10633520, 5.14538628, 8.05139739
7.41114026, 3.54612465, 1.59687194, 1.89076704, 6.37181293, 7.95141497, 6.11964051, 9.39813811
8.01249025, 3.42052628, 1.82345825, 2.17370651, 6.92278846, 8.44393273, 5.74020906, 8.68763489
6.61626783, 4.26907484, 1.78885438, 2.00000000, 6.20483682, 9.37816613, 4.75920161, 6.76756973
7.46491795, 4.53045252, 1.82345825, 2.02484567, 8.45872331, 8.82751381, 5.64800850, 8.30361367
9.02219485, 4.67172345, 2.11541958, 2.66926956, 9.28304907, 9.89949494, 7.40607858, 9.10082414
8.46758525, 4.69308001, 2.28582589, 3.28252951, 9.18286448, 14.73940297, 7.69902591, 10.20784012
8.44985207, 3.83731677, 2.27486263, 3.94334883, 10.58300524, 22.95157947, 7.88194139, 9.69278082
8.09475139, 3.90192260, 2.20227155, 3.70472671, 9.43927963, 22.04200535, 7.22495675, 8.27345152
8.14094589, 4.09878031, 2.07364414, 2.83284309, 6.44204936, 14.65946793, 5.10881591, 8.91908067
7.66974576, 4.15331193, 1.85741756, 2.22485955, 6.91917625, 13.84557691, 4.21010689, 8.15475322
5.10147038, 3.85356977, 1.77482393, 2.19089023, 6.75647837, 12.74460670, 3.68442669, 7.00535509
6.42066975, 3.19765539, 1.88414437, 2.43926218, 6.70447612, 11.26942767, 5.69649015, 8.88678795
7.81824789, 3.61247837, 2.04939015, 2.42899156, 6.55553202, 9.58253620, 6.39140047, 10.93960694
8.44689292, 4.04969135, 2.17944947, 2.27486263, 4.80884602, 9.46308618, 5.00000000, 9.34210897
9.04433524, 4.27784993, 2.03715488, 2.20794022, 6.53069675, 9.62678555, 5.01248441, 6.94622199
11.10968046, 4.28077096, 1.79582850, 2.19089023, 8.02340327, 8.49852928, 5.96866819, 7.93882863
11.15795680, 3.57770876, 1.78885438, 2.03100960, 6.43039657, 7.31266025, 6.06836057, 6.98569968
9.32469839, 3.38747694, 1.77482393, 1.93649167, 4.55796007, 5.79223618, 4.87596144, 7.43639698
9.67083244, 3.67083097, 1.62018517, 2.09761770, 6.41287767, 5.65685425, 4.24264069, 8.08548081
7.96555083, 3.53553391, 1.48323970, 2.25831796, 6.78048671, 7.04450140, 4.35315977, 9.91463565
7.34166194, 3.77822710, 1.53297097, 1.84390889, 5.72494541, 8.10401135, 3.95600809, 10.72846681
10.50000000, 3.71146871, 1.54919334, 1.72481883, 5.18893053, 7.16414684, 3.67763511, 8.46758525
9.72239682, 3.48209707, 1.82345825, 1.85741756, 4.74078053, 6.22494980, 3.96547601, 8.59214758
7.66485486, 4.38748219, 2.17370651, 2.28582589, 5.62583327, 6.18061486, 4.04969135, 7.93882863
10.06975670, 4.34165867, 2.03715488, 2.41867732, 5.71839138, 4.44128360, 5.18893053, 9.17196816
9.16651515, 4.03422855, 1.76776695, 2.10356840, 5.70306935, 5.62361094, 5.97076210, 9.67212490
6.08687112, 3.79802580, 1.73205081, 2.08566536, 6.54217089, 6.71192968, 4.72757866, 7.19200945
7.59275971, 4.11703777, 1.75356779, 2.12720474, 6.63701740, 6.81725751, 4.56618002, 8.56154192
9.29381515, 4.10791918, 1.61245155, 2.19658826, 6.34034699, 6.30872412, 4.96990946, 9.08982948
8.37705199, 3.69120577, 1.65831240, 2.29673682, 6.38161422, 5.12591455, 4.43565102, 7.44815413
8.28402076, 3.65034245, 2.04939015, 2.33452351, 5.97285526, 4.30987239, 5.53850160, 6.29285309
8.41724420, 2.85482048, 1.94293592, 2.38222585, 6.29285309, 3.84707681, 5.49545267, 7.45150991
6.37965516, 2.92831009, 1.56524758, 2.21923410, 5.57897840, 3.22490310, 4.28952212, 8.53522115
7.57792848, 3.80460248, 1.73925271, 1.99374020, 4.54697702, 3.39116499, 4.29825546, 7.71200363
11.00227249, 3.59861084, 2.04328167, 1.98116128, 5.74673821, 3.47850543, 5.09411425, 9.34745955
10.95102735, 3.18982758, 1.77482393, 1.83711731, 6.21087755, 2.89827535, 5.46122697, 10.32714869
9.94233373, 3.60901649, 1.51657509, 1.74642492, 5.50681396, 3.05368630, 4.82959626, 10.75058138
9.75448615, 3.74833296, 1.85741756, 2.05548048, 5.89279221, 3.76497012, 5.16720427, 10.55106630
9.06090503, 3.71146871, 1.77482393, 2.12132034, 5.90127105, 4.03112887, 4.98497743, 9.23715324
9.32469839, 4.05277683, 1.66583312, 1.95576072, 6.24099351, 3.82426464, 4.52769257, 9.10631649
8.01560977, 4.00000000, 1.78885438, 2.17944947, 7.14492827, 3.49642675, 4.64758002, 9.15013661
6.82458790, 3.53906767, 1.63554272, 2.22485955, 7.20243015, 3.02076149, 5.00249938, 7.99531113
9.64883413, 4.81923230, 1.96214169, 2.20227155, 7.86129760, 2.88530761, 5.17445649, 10.04116527
10.47258325, 5.20576603, 1.89076704, 2.13892496, 7.25086202, 2.74317334, 4.43846820, 10.68410034
8.78350727, 4.05894075, 1.58113883, 1.94293592, 5.19855749, 2.98747385, 4.44690904, 8.54400375
11.25610945, 3.57770876, 1.80277564, 1.71026314, 4.11400049, 3.23651047, 4.33012702, 8.33816527
11.91427715, 5.06951674, 2.02484567, 1.68077363, 4.97744915, 3.22102468, 3.54964787, 8.04363102
9.70695627, 5.07937004, 2.17370651, 1.81659021, 6.03738354, 3.01247407, 3.18198052, 7.44815413
10.11928851, 3.51781182, 1.83711731, 1.58902486, 5.49317759, 2.72488532, 4.24264069, 8.45576726
9.39281640, 3.55668385, 1.65075740, 1.60468065, 5.90127105, 2.67861905, 4.51386752, 7.84059947
6.24499800, 3.72827038, 1.59687194, 1.98116128, 7.04272674, 3.55668385, 3.94334883, 9.92723526
6.03738354, 4.32145809, 1.68077363, 2.29128785, 6.48845128, 3.60555128, 4.04660351, 12.94024729
7.06576252, 3.96547601, 1.80277564, 2.15638587, 5.24880939, 3.08220700, 4.33012702, 10.29805807
6.79153885, 2.97489496, 1.90394328, 2.16217483, 5.89067059, 3.91790760, 3.98120585, 7.50000000
6.39921870, 3.42417873, 1.80969611, 2.26384628, 7.71038261, 4.10791918, 2.90258505, 7.07990113
5.16720427, 4.18031099, 2.07364414, 2.44438131, 6.92639878, 3.98748041, 4.06201920, 6.87386354
7.35017007, 4.59075157, 2.50998008, 2.72488532, 4.78016736, 3.65376518, 4.71699057, 7.65669642
9.63976141, 3.67423461, 2.24165118, 2.37697286, 3.59513560, 3.26726185, 4.30697109, 8.26740588
10.48808848, 3.70472671, 1.98746069, 2.03715488, 3.08625987, 3.13847097, 3.80460248, 9.53677094
12.45190748, 4.12613621, 2.05548048, 2.13307290, 3.72491611, 3.25960120, 3.52845575, 8.77353976
11.37431317, 3.60208273, 2.01866292, 1.89076704, 3.49284984, 3.80788655, 4.00624512, 6.17656863
7.55976190, 3.59165700, 1.95576072, 1.68819430, 3.09434969, 3.16227766, 4.23969339, 6.07247890
7.20763484, 3.86328875, 1.97484177, 1.93649167, 3.36897611, 2.29128785, 3.97177542, 6.42066975
7.15891053, 4.39602093, 1.86413519, 1.84390889, 3.31662479, 2.22485955, 3.45325933, 5.12103505
8.07000620, 4.22492603, 2.04939015, 1.86413519, 3.45687720, 2.68328157, 3.58817502, 6.41092817
9.61899163, 3.45687720, 2.07966343, 1.96214169, 3.46049129, 2.60288302, 4.38748219, 7.06753139
9.70438045, 4.10182886, 2.44438131, 2.01866292, 3.76828874, 2.77938842, 4.75394573, 6.86840593
8.41872912, 4.26321475, 2.58843582, 2.12720474, 4.13823634, 3.13847097, 4.46934000, 7.71200363
6.68393597, 4.02181551, 1.83711731, 2.32379001, 6.57457223, 3.72155881, 4.51109743, 7.77495981
10.00249969, 5.21775814, 1.71755640, 2.15638587, 6.91013748, 3.82753184, 4.87596144, 6.49037749
10.72263960, 6.24699928, 2.60288302, 1.80969611, 4.90407993, 3.09030743, 4.63680925, 4.89897949
9.74807673, 5.77278096, 2.67861905, 2.16794834, 6.14003257, 3.28633535, 4.78800585, 7.40270221
9.64235448, 5.08428953, 1.94293592, 2.07966343, 6.27495020, 3.08625987, 4.40170422, 8.93308457
9.47364766, 5.94768863, 1.95576072, 1.92353841, 6.12168278, 3.24422564, 4.06201920, 8.48380811
11.24499889, 5.74020906, 2.07364414, 2.22485955, 6.23899030, 3.45687720, 5.14781507, 8.28552955
10.64424727, 4.90917508, 2.25831796, 2.29128785, 6.99464081, 3.02076149, 5.00749438, 7.73789377
8.01560977, 4.17133072, 2.79284801, 2.22485955, 7.60920495, 3.13847097, 3.88265373, 6.06836057
9.00832948, 3.35410197, 2.71108834, 2.01246118, 6.10122938, 2.85482048, 4.01248053, 5.21775814
10.38026975, 3.78153408, 2.38222585, 1.89736660, 6.68580586, 2.52487623, 4.83735465, 5.95818764
9.02496537, 5.34789678, 2.47487373, 1.91702895, 6.89383783, 2.66926956, 4.55796007, 7.90885580
7.34846923, 5.15994186, 2.28035085, 1.87749834, 6.35019685, 2.40831892, 4.30987239, 7.36036684
7.07283536, 3.74165739, 2.39269722, 2.36114379, 6.89927532, 2.84165445, 4.81923230, 6.09097693
6.43816744, 3.80131556, 2.35584380, 2.39791576, 6.83008053, 4.04042077, 4.57711700, 7.69577806
5.02493781, 4.34165867, 1.98746069, 2.26384628, 6.60870638, 4.44690904, 4.33012702, 7.86924393
5.15509457, 4.69041576, 2.00000000, 2.40831892, 6.16441400, 3.93064880, 4.61519230, 8.53522115
7.47161295, 5.09901951, 1.87082869, 2.35584380, 6.08070720, 4.74868403, 4.97744915, 8.09166238
7.68602628, 5.11615090, 2.00000000, 2.41350368, 6.21490145, 4.90917508, 4.59075157, 6.25899353
5.43829017, 4.01248053, 2.01246118, 2.29128785, 6.29285309, 3.97492138, 5.50681396, 7.87400787
7.05336799, 3.31285375, 1.71755640, 2.07364414, 6.58407169, 3.72491611, 6.40117177, 9.91463565
8.02496106, 3.75166630, 1.73205081, 1.94935887, 5.97076210, 3.46049129, 5.42908832, 8.55862138
8.83459111, 4.45252737, 1.58902486, 1.78185297, 6.10327781, 3.35037311, 5.46808925, 7.63380639
10.36580918, 4.53596737, 1.62018517, 1.87749834, 5.73149195, 2.87662997, 5.78143581, 7.89461842
8.86566410, 4.20119031, 1.88414437, 1.98116128, 4.16233108, 2.77037904, 4.73814310, 6.77495387
9.31262584, 3.57421320, 1.70293864, 1.88414437, 5.30330086, 2.58843582, 4.60434577, 9.50789146
9.94861799, 3.60901649, 1.55724115, 2.17944947, 6.63890051, 3.24422564, 5.31977443, 10.35012077
8.08393469, 3.54612465, 1.71755640, 2.47487373, 6.75462804, 4.02492236, 5.15024271, 10.06975670
7.13617545, 3.67083097, 1.78185297, 2.40831892, 7.02851336, 3.86005181, 4.38748219, 9.85520167
6.19273768, 4.06816912, 1.83711731, 2.24722051, 6.69328021, 3.55668385, 4.54697702, 8.45428885
6.35413251, 3.94651745, 1.87082869, 2.24165118, 5.38052042, 3.14642654, 5.39444158, 8.81192374
8.89100669, 4.38178046, 1.80969611, 2.24165118, 6.05805249, 2.63153947, 5.22015325, 8.31865374
12.98268077, 4.60434577, 1.70293864, 1.82345825, 6.11555394, 1.95576072, 4.39033028, 7.29725976
12.64317998, 3.81444622, 1.65075740, 1.98116128, 6.09097693, 2.42383993, 5.17445649, 9.80178555
10.97269338, 3.54259792, 1.70293864, 2.30217289, 5.91396652, 3.04548847, 5.72494541, 11.30044247
9.39680797, 3.86975451, 1.92353841, 2.14476106, 5.83737955, 2.89827535, 4.86569625, 9.25067565
7.16589143, 3.59165700, 1.93002591, 2.12720474, 6.95521387, 2.52487623, 4.54422711, 7.68765244
9.17333091, 3.90512484, 1.75356779, 1.89076704, 6.23698645, 2.16217483, 4.54697702, 7.38241153
10.35374328, 4.31856458, 1.73925271, 1.65075740, 5.39212389, 2.61725047, 5.36423340, 7.80384521
10.33440855, 4.32723930, 1.77482393, 1.64316767, 4.87596144, 2.81957444, 5.88217647, 8.42318230
9.27766134, 4.01248053, 1.86413519, 1.60468065, 5.89067059, 2.41350368, 5.11615090, 7.04450140
8.54107722, 3.63318042, 1.68077363, 1.77482393, 7.26980055, 2.98747385, 3.93064880, 8.03585714
7.34676800, 3.68103246, 1.47478812, 1.65075740, 6.10737259, 3.31285375, 4.00624512, 8.28251170
7.45486418, 3.78483817, 1.77482393, 1.64316767, 5.53850160, 3.18590646, 5.12591455, 7.60263112
7.70713955, 3.94651745, 2.02484567, 2.01866292, 6.75092586, 2.87228132, 5.66568619, 8.65736681
7.28354309, 4.24558594, 2.00624026, 1.93002591, 6.41677489, 2.91547595, 4.64219776, 7.31436942
8.27949274, 3.96862697, 1.84390889, 1.65831240, 5.86515132, 3.20936131, 3.47131099, 6.82641927
7.84856675, 4.02181551, 1.64316767, 1.78185297, 5.93085154, 2.82400425, 5.61248608, 8.69482605
8.25832913, 4.71168760, 1.63554272, 1.73205081, 5.68110905, 2.55929678, 6.46335826, 10.98635517
8.07465170, 4.75131561, 1.63554272, 1.64316767, 5.90550591, 2.26936114, 6.14613700, 10.93503544
9.41010096, 4.03732585, 1.89736660, 2.17370651, 6.85383105, 3.02076149, 5.27967802, 8.56446145
9.84758854, 3.08220700, 1.82345825, 2.09165007, 6.15223537, 3.53199660, 3.99061399, 8.09011743
10.91443998, 3.86652299, 1.86413519, 1.73925271, 4.98497743, 3.21714159, 4.16833300, 7.24568837
10.66536450, 3.84382622, 1.91702895, 1.93649167, 5.79870675, 3.29772649, 4.55796007, 6.84105255
8.63712915, 3.41320963, 1.59687194, 1.76776695, 5.47494292, 3.01662063, 4.85025773, 6.46335826
9.90959131, 3.74165739, 1.58113883, 1.48323970, 4.54147553, 2.59326050, 4.33012702, 7.89303490
8.50147046, 3.46770818, 1.54919334, 1.63554272, 6.36003145, 2.72946881, 3.86975451, 9.03742220
6.84835747, 4.54972527, 1.83711731, 1.97484177, 6.58596994, 2.63153947, 4.03422855, 7.58452372
8.81334216, 4.37607130, 1.86413519, 1.83030052, 4.86055552, 2.57390754, 4.80624594, 8.18077013
8.63133825, 3.00832179, 1.69558250, 1.61245155, 5.62583327, 2.92831009, 5.32212364, 9.87927123
5.58345771, 2.79284801, 1.81659021, 1.81659021, 6.23297682, 2.97909382, 5.02493781, 10.53090689
8.84448981, 2.91118533, 1.83030052, 1.83711731, 4.88876262, 2.57875939, 4.57438520, 11.82687617
10.50000000, 2.95803989, 1.95576072, 1.81659021, 4.09878031, 2.63628527, 4.56070170, 11.09954954
8.96102673, 3.40954542, 1.77482393, 2.03100960, 5.50908341, 2.91976026, 5.20816666, 8.19298480
8.03741252, 3.78483817, 1.42302495, 2.05548048, 4.93203812, 3.02902625, 5.69868406, 8.74499857
7.86447710, 3.27490458, 1.68077363, 2.30759615, 5.09411425, 3.19374388, 5.38516481, 8.23862853
11.12991464, 3.75499667, 1.80277564, 2.26936114, 5.78359750, 3.46410162, 5.06705042, 6.75647837
11.41928194, 4.93457192, 1.80969611, 1.71755640, 4.67707173, 3.17411405, 6.08276253, 8.83883476
11.00340856, 4.64219776, 1.76068169, 1.67332005, 5.00000000, 2.33987179, 6.34428877, 11.49891299
10.92016483, 3.62284419, 1.73205081, 1.70293864, 4.96990946, 2.17944947, 5.79439384, 11.40723455
8.07310349, 4.02181551, 1.81659021, 1.75356779, 5.58569602, 2.42383993, 5.43139025, 10.44748774
7.72010363, 4.27200187, 1.73205081, 1.89076704, 6.01040764, 2.38746728, 4.61519230, 9.07606743
7.80384521, 4.59075157, 1.74642492, 2.07364414, 4.48330235, 2.49499499, 5.41063767, 11.57475702
9.31799335, 5.37819672, 1.81659021, 2.04939015, 4.88108594, 2.90688837, 6.20282194, 11.80042372
9.91589633, 4.71168760, 1.78885438, 1.92353841, 5.87579782, 3.17804972, 6.40507611, 8.70631954
8.88115983, 3.03315018, 1.73205081, 2.04939015, 6.48459713, 3.47131099, 5.58345771, 9.86787718
12.23928102, 3.55668385, 1.58902486, 1.97484177, 5.97076210, 3.38747694, 4.90153037, 8.64580823
13.13868334, 4.19225476, 1.57321327, 1.83030052, 5.56102509, 2.87662997, 4.88364618, 7.34166194
10.73196161, 3.70809924, 1.64316767, 1.89736660, 7.39763476, 2.97489496, 4.08044115, 7.87083223
8.57467201, 3.39116499, 1.76776695, 1.98116128, 7.07460246, 3.26343377, 4.46094160, 8.45133126
7.19374728, 3.04959014, 1.63554272, 1.87749834, 4.94216552, 2.70647372, 4.37607130, 7.66159252
9.05124301, 3.30907842, 1.53297097, 1.71026314, 4.58530261, 3.06186218, 4.53045252, 6.46915760
11.05441088, 4.33877863, 1.80277564, 1.67332005, 5.72494541, 3.32039154, 5.43829017, 7.11512474
10.01623682, 4.34453680, 1.76776695, 1.67332005, 5.82022336, 2.80178515, 4.63411264, 6.76387463
6.73424086, 3.92109679, 2.37697286, 2.45458754, 5.46351535, 3.20936131, 3.11849323, 6.19071886
6.86112236, 4.18031099, 2.63628527, 2.50499501, 6.22494980, 3.47491007, 3.52845575, 6.85383105
6.26498204, 3.99061399, 2.04939015, 1.91049732, 5.51588615, 3.74165739, 3.73831513, 6.99821406
8.35763124, 3.66401419, 1.77482393, 1.98116128, 4.55521679, 3.37638860, 3.87620949, 6.76202632
9.85773808, 3.98434436, 1.79582850, 1.73925271, 5.22015325, 2.57875939, 5.03736042, 6.85200701
9.10768906, 3.78813938, 1.78885438, 1.69558250, 5.48178803, 3.17017350, 5.32916504, 7.94512429
10.29198717, 3.53906767, 1.87082869, 2.09165007, 5.72712843, 3.43874977, 4.56070170, 8.66169729
9.31396801, 3.51425668, 1.84390889, 2.09761770, 6.41872261, 3.44963766, 4.30697109, 8.60087205
7.44311763, 3.99374511, 1.57321327, 1.90394328, 6.29483916, 3.44601219, 5.24166004, 8.72639674
7.80704810, 3.86975451, 1.79582850, 1.80969611, 5.68770604, 2.66926956, 6.23498196, 8.78208404
8.86989290, 3.11448230, 1.65075740, 1.81659021, 5.24404424, 2.10950231, 6.98212002, 8.03741252
8.73784871, 3.40220517, 1.30384048, 1.86413519, 4.29825546, 2.70647372, 6.56696277, 8.60668345
8.78777560, 3.61593695, 1.69558250, 1.86413519, 4.79061583, 3.19765539, 4.86055552, 9.16651515
9.42602780, 3.29772649, 1.92353841, 1.83030052, 5.57897840, 3.06186218, 4.95479566, 9.43663075
7.94040301, 3.54259792, 1.80969611, 1.78885438, 4.59619408, 2.83284309, 5.63249501, 9.88433103
9.23715324, 3.92428337, 1.73205081, 2.06760731, 3.93064880, 3.01247407, 5.39907399, 9.17877988
10.76104084, 3.40954542, 1.54919334, 2.02484567, 4.49722136, 2.83725219, 4.39033028, 9.01249133
8.25984261, 2.94533530, 1.45773797, 1.98746069, 4.78278162, 2.95803989, 4.14728827, 7.69415362
6.73609679, 4.23083916, 1.82345825, 2.15638587, 6.47108955, 3.29013678, 4.67707173, 7.39087275
7.11336770, 4.63680925, 1.78185297, 1.99374020, 6.31070519, 3.11849323, 5.48862460, 8.20975030
7.56967635, 3.59513560, 1.78885438, 1.90394328, 4.39033028, 2.66458252, 5.04479930, 7.13091859
7.93410360, 3.57770876, 1.96850197, 1.84390889, 3.93700394, 2.37697286, 3.77160443, 6.07042008
7.73950903, 4.25734659, 1.77482393, 1.98746069, 4.04042077, 2.54950976, 3.92746738, 5.91819229
7.91991162, 4.23083916, 1.86413519, 1.96850197, 4.60163015, 2.85043856, 3.69459064, 10.02621564
7.41282672, 3.76497012, 1.99374020, 1.76068169, 4.80624594, 3.24807635, 3.71819849, 10.90412766
6.76756973, 3.87943295, 2.01246118, 2.03715488, 4.39602093, 3.34664011, 4.54972527, 12.46093897
6.87568178, 3.68442669, 1.97484177, 2.29673682, 4.42718872, 3.57421320, 4.68508271, 12.58868540
8.23255732, 3.15832234, 1.55724115, 2.06155281, 4.63950428, 3.47131099, 4.02181551, 9.26957388
8.75499857, 2.85482048, 1.41421356, 1.58113883, 3.88265373, 2.94957624, 3.72491611, 8.16394512
9.02219485, 3.14642654, 1.49164339, 1.63554272, 3.87943295, 2.80624304, 3.86652299, 6.00624675
9.10494371, 3.86005181, 1.54919334, 1.77482393, 3.98748041, 3.19374388, 4.82182538, 6.91194618
9.36482781, 4.11400049, 1.60468065, 1.67332005, 3.68103246, 3.42417873, 4.85540935, 7.64689479
9.66824700, 3.59861084, 1.65075740, 1.94293592, 3.98434436, 3.21325380, 3.51069794, 8.30210817
8.13941030, 3.15832234, 1.70293864, 2.18517734, 4.12613621, 3.00000000, 3.21714159, 7.72334125
7.93882863, 3.33541602, 1.66583312, 2.20227155, 4.38463225, 3.01662063, 3.97492138, 6.48266920
7.98122798, 3.41686991, 1.65075740, 1.99374020, 4.19821391, 3.09030743, 5.07937004, 9.14193634
8.14094589, 3.71819849, 1.78885438, 1.66583312, 3.64005494, 2.95381110, 4.83218377, 9.50394655
8.68043778, 3.36526373, 1.86413519, 1.93649167, 3.64691651, 2.95803989, 3.68442669, 7.33484833
8.31865374, 2.77488739, 1.85741756, 2.19658826, 4.33877863, 3.27108545, 3.87298335, 6.82275604
8.64436232, 3.18590646, 1.72481883, 2.20794022, 4.87852437, 3.15039680, 4.42718872, 6.68019461
11.35781669, 3.50000000, 1.83030052, 2.42383993, 4.70106371, 2.97489496, 4.74868403, 7.34676800
10.82243041, 3.76164857, 1.80969611, 2.57390754, 5.53624421, 3.21325380, 4.65026881, 9.28977933
6.74722165, 3.58468967, 1.83030052, 2.33452351, 5.26545345, 2.85043856, 4.21307489, 8.38898087
6.24099351, 3.13847097, 1.89736660, 1.80969611, 3.72491611, 2.63628527, 3.55316760, 5.97494770
6.50960828, 3.86328875, 1.89736660, 1.93002591, 4.08962101, 3.08220700, 3.58120092, 5.67890835
7.20763484, 3.97492138, 1.80277564, 2.08566536, 4.58257569, 2.69722079, 4.05585996, 6.32060124
8.04052237, 3.14245127, 1.56524758, 1.95576072, 4.30987239, 2.44948974, 4.95479566, 7.22495675
6.76941652, 2.32379001, 1.60468065, 2.35584380, 4.35603030, 2.61247010, 4.31566913, 7.46156820
7.55645419, 2.19089023, 1.56524758, 2.14476106, 4.37892681, 2.18517734, 3.05368630, 8.58923745
7.94355084, 2.99165506, 1.68077363, 1.89736660, 4.42153819, 2.93257566, 4.67707173, 9.94610477
5.81162628, 2.94533530, 1.83711731, 2.07966343, 4.19821391, 5.69209979, 4.92188988, 8.57175595
5.63471383, 2.29673682, 1.94293592, 2.26936114, 5.00999002, 9.17605580, 4.45252737, 7.92464510
5.73149195, 2.03100960, 1.83711731, 2.65988722, 5.75977430, 9.99624930, 5.53398591, 9.26417832
6.00624675, 2.58843582, 1.68819430, 2.31300670, 4.54697702, 9.60468636, 6.32850693, 7.53989390
6.76756973, 2.63153947, 1.73925271, 1.65831240, 3.32039154, 8.22040145, 6.75832820, 6.50768776
8.45576726, 2.39269722, 1.80277564, 1.65831240, 3.50356961, 7.35017007, 6.23899030, 8.22344210
7.71200363, 2.65988722, 1.79582850, 1.92353841, 3.79473319, 6.78232998, 5.54526825, 10.26766770
5.70087713, 2.44948974, 1.80969611, 2.16217483, 4.85798312, 5.82666285, 5.39212389, 10.88002757
5.92874354, 2.93257566, 1.96850197, 2.12132034, 5.22015325, 6.03531275, 6.02287307, 9.64753855
8.75642621, 3.46770818, 2.39269722, 2.74317334, 5.22972275, 5.18169856, 5.87367006, 8.44245225
9.01942348, 3.38747694, 2.20794022, 3.04959014, 4.95227221, 5.39444158, 5.21296461, 8.97078592
6.66145630, 3.31285375, 1.65075740, 2.55440795, 4.47213595, 5.50454358, 5.53624421, 9.63716763
6.38357267, 2.83725219, 1.80277564, 2.24165118, 4.59891292, 4.56344168, 4.62871472, 7.82943165
5.74020906, 2.87662997, 1.82345825, 2.24722051, 4.04969135, 4.05585996, 4.44690904, 8.87271097
7.65016340, 3.23651047, 1.71755640, 2.32379001, 4.23083916, 4.76969601, 4.84252001, 9.18558654
7.12565786, 3.28633535, 1.83711731, 2.18517734, 3.67423461, 4.50832563, 4.75131561, 7.54817859
5.79223618, 3.46770818, 2.00624026, 2.11541958, 3.58468967, 5.23927476, 4.82441706, 8.74928569
5.78143581, 3.29772649, 2.23047080, 2.48495473, 5.24880939, 5.53172667, 5.84807661, 9.62808392
3.72491611, 2.85043856, 2.03715488, 2.35584380, 5.21536192, 6.19475585, 5.78791845, 9.70180396
4.26321475, 2.90258505, 1.69558250, 2.23606798, 3.99687378, 6.71192968, 5.04232089, 11.82053298
4.26321475, 3.37268439, 1.63554272, 2.59326050, 5.88217647, 5.38284311, 5.34088008, 11.24944443
4.96487663, 3.69120577, 1.59687194, 2.13892496, 5.88854821, 4.92442890, 5.88005102, 9.55117794
5.49772680, 4.60977223, 1.95576072, 2.13892496, 4.55796007, 5.42448154, 5.62138773, 9.51577637
4.51386752, 4.12916456, 2.13307290, 2.80624304, 5.44518136, 7.29554659, 4.55521679, 7.64362479
6.20483682, 3.46410162, 1.95576072, 2.59807621, 4.71433983, 7.18853253, 3.98748041, 7.26980055
7.37394060, 4.53872229, 1.68819430, 2.18517734, 3.82753184, 5.88005102, 3.68103246, 7.57627877
6.35806574, 6.26099034, 2.06155281, 2.29128785, 4.76707457, 5.85662019, 3.95284708, 7.51997340
5.49772680, 6.84653197, 2.13307290, 2.60288302, 5.82022336, 5.34088008, 4.19523539, 7.96398142
4.90662817, 4.78539445, 1.69558250, 2.60288302, 5.35023364, 5.90550591, 4.99499750, 9.22225569
6.33837519, 2.88963666, 1.82345825, 2.43413229, 4.54147553, 6.82092369, 4.98246927, 8.38450953
6.41287767, 3.68442669, 1.83030052, 2.52982213, 5.18411034, 6.00416522, 4.16533312, 7.30068490
4.26321475, 3.52136337, 1.65831240, 2.28035085, 4.92188988, 4.98998998, 3.75499667, 8.42614977
5.69649015, 2.86356421, 1.65075740, 1.98746069, 4.43001129, 4.48608961, 4.01248053, 8.64580823
6.48845128, 3.55668385, 1.56524758, 2.38222585, 4.87596144, 3.17017350, 6.50192279, 8.98053451
4.86055552, 4.12916456, 1.54919334, 2.37697286, 4.81663783, 3.88587185, 6.36985086, 8.58050115
4.95731782, 4.33589668, 2.20227155, 2.49499499, 5.49090157, 4.41871022, 4.79583152, 8.40535544
5.52268051, 4.20713679, 2.38746728, 2.52982213, 5.60133913, 4.01248053, 5.08183038, 8.69338829
6.05392435, 3.65034245, 1.97484177, 2.14476106, 4.57438520, 3.64005494, 4.63141447, 8.93728147
6.05598877, 3.26726185, 1.80277564, 1.98746069, 3.74833296, 3.33541602, 4.87852437, 8.97078592
5.65464411, 3.50000000, 1.71026314, 1.80277564, 3.80788655, 3.19374388, 4.98998998, 7.12741187
5.75108685, 3.66742416, 2.03715488, 2.13307290, 4.31856458, 3.43511281, 5.45206383, 6.71006706
6.01872079, 3.54259792, 2.00624026, 2.36114379, 4.67707173, 3.37638860, 5.37819672, 6.87568178
6.20685105, 3.36897611, 1.70293864, 2.18517734, 4.46094160, 3.40587727, 4.91934955, 9.15150261
6.99464081, 2.88963666, 1.88414437, 2.15638587, 4.12916456, 3.52491135, 5.12347538, 10.37183687
6.47881162, 3.48209707, 1.88414437, 2.38222585, 4.35028735, 3.43874977, 4.78800585, 8.99722179
6.48266920, 3.60555128, 1.72481883, 2.26936114, 4.42718872, 3.25192251, 4.51386752, 8.23103882
6.12984502, 2.63153947, 1.93002591, 2.04328167, 4.53321078, 3.58468967, 3.98434436, 7.34846923
4.81923230, 2.76134025, 1.91049732, 1.86413519, 4.27784993, 3.38747694, 3.85681216, 7.13967786
6.81542368, 3.20156212, 1.57321327, 1.83711731, 4.09572948, 3.36526373, 4.12007281, 6.95161852
7.49666593, 3.49284984, 1.69558250, 1.79582850, 3.66742416, 3.08625987, 3.80788655, 7.21803297
7.84378735, 3.50713558, 1.59687194, 1.67332005, 3.84057287, 2.55929678, 4.16833300, 8.27496224
8.91207047, 3.17804972, 1.44048603, 2.01866292, 3.92428337, 2.56417628, 4.65564174, 9.24391692
7.93410360, 3.04959014, 1.62788206, 2.31300670, 3.97806486, 5.04479930, 4.19821391, 10.27983463
5.83737955, 3.21714159, 1.96850197, 2.37170825, 4.30987239, 5.85662019, 4.16233108, 9.04018805
4.96990946, 2.85043856, 2.03715488, 2.43413229, 4.77231600, 5.20576603, 3.90512484, 7.17809167
4.71433983, 2.66926956, 2.00000000, 2.53475837, 4.94722144, 4.54147553, 3.52491135, 6.75092586
5.71839138, 3.28252951, 1.98746069, 2.35053185, 4.21604080, 5.01497757, 4.58802790, 6.98391008
5.69868406, 3.05368630, 1.62788206, 2.02484567, 3.84382622, 4.87852437, 5.68550789, 10.60660172
6.25899353, 3.22877686, 1.57321327, 1.83030052, 3.68781778, 2.61725047, 5.89703315, 10.44150372
6.23498196, 3.25576412, 1.76776695, 2.07966343, 4.08962101, 2.70185122, 5.96238207, 8.64725390
6.51152824, 3.13847097, 1.77482393, 2.31300670, 4.56618002, 4.23379263, 5.45893763, 10.30776406
8.09011743, 3.44963766, 1.77482393, 2.09761770, 4.52769257, 4.34453680, 4.93457192, 9.53414915
8.71779789, 2.94533530, 1.71755640, 2.13307290, 3.89230009, 3.04959014, 4.79061583, 8.27496224
6.99642766, 3.06186218, 1.78185297, 2.04328167, 3.39484904, 2.93257566, 4.56891672, 8.74642784
5.15266921, 3.04548847, 1.95576072, 1.81659021, 3.57770876, 2.73861279, 5.03239506, 7.81824789
6.84835747, 2.73861279, 1.99374020, 2.20794022, 4.31277173, 2.91118533, 4.93457192, 9.00138878
6.97495520, 2.85482048, 1.87082869, 2.31840462, 5.16478460, 3.09838668, 4.80104155, 9.68504001
6.67270560, 2.77037904, 1.65075740, 2.06760731, 4.84252001, 2.99165506, 4.98497743, 7.67463354
6.56505902, 2.72946881, 1.70293864, 2.19089023, 4.09267639, 3.25192251, 5.46351535, 7.28182669