1.85067555, 3.12649964, 6.30079360, 10.38869578, 24.32693980, 5.49545267, 9.07606743, 2.09165007
1.42302495, 2.51495527, 6.09097693, 10.31018914, 21.33541656, 4.48330235, 13.02689526, 2.42383993
1.55724115, 2.15638587, 5.19133894, 9.59035974, 10.80856142, 5.14295635, 15.22333735, 2.72946881
1.58113883, 2.06760731, 3.44238290, 5.71839138, 5.45435606, 7.66322386, 12.36021844, 2.42383993
1.43178211, 1.89076704, 2.70647372, 2.88530761, 2.92831009, 7.20763484, 5.98122061, 1.84390889
1.44048603, 1.74642492, 2.45967478, 5.85234996, 2.17944947, 3.56019662, 6.87022561, 1.49164339
1.47478812, 1.85067555, 3.38378486, 8.93448376, 2.61247010, 2.77488739, 9.72753823, 1.53297097
1.65831240, 1.57321327, 3.20546408, 7.69252884, 2.45967478, 2.81069386, 8.39791641, 1.53297097
1.51657509, 1.20415946, 1.94293592, 4.01248053, 1.85067555, 1.89736660, 3.85356977, 1.27475488
1.24498996, 1.36930639, 1.49164339, 2.23047080, 1.43178211, 1.43178211, 2.64102253, 1.44048603
1.48323970, 1.56524758, 1.62018517, 1.40534693, 1.35092561, 1.16189500, 1.50000000, 1.38744369
1.65075740, 1.38744369, 1.57321327, 1.50000000, 1.45773797, 1.14017543, 1.19373364, 1.27475488
1.60468065, 1.06066017, 1.36930639, 1.50000000, 1.50831031, 1.37840488, 1.02469508, 1.44913767
1.47478812, 1.38744369, 1.65075740, 3.50356961, 1.47478812, 1.38744369, 1.16189500, 1.41421356
1.91702895, 3.62284419, 4.21010689, 5.92663480, 2.58843582, 1.68819430, 1.78185297, 1.68077363
2.59807621, 4.53321078, 6.35019685, 8.29156198, 4.98497743, 10.10569147, 9.91463565, 2.43413229
2.92831009, 4.59347363, 7.36206493, 9.36349294, 5.08428953, 10.83282050, 12.00000000, 2.39791576
3.08220700, 4.84510062, 6.77679865, 8.15475322, 3.30907842, 4.82441706, 9.67341718, 1.87749834
2.73861279, 3.85681216, 5.54977477, 7.14492827, 3.23651047, 4.82182538, 9.38616002, 2.17944947
2.07364414, 2.55440795, 4.97744915, 7.85493475, 3.11448230, 5.85662019, 7.29040465, 2.00624026
1.84390889, 2.50000000, 4.74868403, 7.07990113, 2.42899156, 4.55521679, 3.73162163, 1.28452326
1.86413519, 3.00000000, 6.91375441, 8.40238062, 1.86413519, 2.21359436, 5.53624421, 1.62788206
2.84165445, 3.05368630, 6.52495211, 7.84856675, 1.65075740, 1.40534693, 6.18263698, 2.19089023
2.82842712, 2.45458754, 2.99583044, 3.14245127, 1.49164339, 1.36014705, 3.74499666, 2.02484567
1.54919334, 1.80277564, 1.71026314, 1.96850197, 1.40534693, 1.28452326, 2.09165007, 1.58113883
1.24498996, 1.49164339, 1.49164339, 1.36930639, 1.45773797, 1.26491106, 1.53297097, 1.41421356
1.11803399, 1.53297097, 1.48323970, 1.49164339, 1.36930639, 1.30384048, 1.41421356, 1.32287566
1.22474487, 1.40534693, 1.46628783, 1.33229126, 1.21449578, 1.34164079, 1.43178211, 1.38744369
1.26491106, 1.57321327, 1.41421356, 1.35092561, 1.19373364, 1.44048603, 1.35092561, 1.35092561
1.10679718, 1.53297097, 1.44048603, 1.41421356, 1.33229126, 1.47478812, 1.30384048, 1.40534693
1.25499004, 1.29421791, 1.52479507, 1.17260394, 1.42302495, 1.36930639, 1.28452326, 1.33229126
1.24498996, 1.33229126, 1.55724115, 1.27475488, 1.41421356, 1.46628783, 1.21449578, 1.23490890
1.14017543, 1.38744369, 1.40534693, 1.37840488, 1.21449578, 1.36930639, 1.30384048, 1.18321596
1.08397417, 1.36014705, 1.27475488, 1.31339255, 1.31339255, 1.27475488, 1.44913767, 1.15108644
1.24498996, 1.31339255, 1.41421356, 1.48323970, 1.42302495, 1.44913767, 1.37840488, 1.32287566
1.37840488, 1.47478812, 1.28452326, 1.40534693, 1.30384048, 1.40534693, 1.32287566, 1.33229126
1.37840488, 1.53297097, 1.16189500, 1.30384048, 1.22474487, 1.32287566, 1.36930639, 1.36014705
1.40534693, 1.25499004, 1.46628783, 1.37840488, 1.45773797, 1.24498996, 1.39642400, 1.47478812
1.27475488, 1.36930639, 1.41421356, 1.24498996, 1.67332005, 1.31339255, 1.36930639, 1.40534693
1.19373364, 1.48323970, 1.25499004, 1.40534693, 1.60468065, 1.37840488, 1.36930639, 1.26491106
1.17260394, 1.31339255, 1.38744369, 1.41421356, 1.44913767, 1.41421356, 1.30384048, 1.26491106
1.30384048, 1.27475488, 1.34164079, 1.23490890, 1.16189500, 1.33229126, 1.31339255, 1.29421791
1.30384048, 1.32287566, 1.33229126, 1.30384048, 1.21449578, 1.24498996, 1.44048603, 1.23490890
1.07238053, 1.40534693, 1.27475488, 1.35092561, 1.46628783, 1.27475488, 1.29421791, 1.19373364
1.19373364, 1.41421356, 1.31339255, 1.44913767, 1.98116128, 9.69922677, 2.75680975, 1.58113883
1.34164079, 1.50000000, 1.52479507, 1.49164339, 1.87749834, 9.94987437, 2.91547595, 1.56524758
1.39642400, 1.53297097, 1.48323970, 1.31339255, 1.33229126, 2.66926956, 1.85067555, 1.44048603
1.31339255, 1.37840488, 1.49164339, 1.19373364, 1.47478812, 1.42302495, 1.65831240, 1.46628783
1.25499004, 1.43178211, 1.47478812, 1.04880885, 1.57321327, 1.43178211, 1.35092561, 1.24498996
1.15108644, 1.43178211, 1.46628783, 1.24498996, 1.46628783, 3.39116499, 1.46628783, 1.47478812
1.18321596, 1.20415946, 1.58902486, 1.58113883, 1.42302495, 9.61119139, 2.18517734, 1.61245155
1.23490890, 1.22474487, 1.73205081, 1.47478812, 1.41421356, 9.65401471, 2.08566536, 1.36930639
1.06066017, 1.26491106, 1.73925271, 1.20415946, 1.43178211, 3.65034245, 1.25499004, 1.28452326
1.12915898, 1.46628783, 1.51657509, 1.23490890, 1.39642400, 1.90394328, 1.21449578, 1.15108644
1.45773797, 1.53297097, 1.61245155, 1.29421791, 1.36930639, 1.44913767, 1.23490890, 1.14017543
1.49164339, 1.62018517, 3.01247407, 1.51657509, 1.61245155, 1.74642492, 1.32287566, 1.42302495
1.39642400, 1.71026314, 2.87662997, 1.50831031, 1.71026314, 4.06816912, 1.66583312, 1.57321327
1.50000000, 1.47478812, 1.36014705, 1.21449578, 1.59687194, 5.79007772, 1.90394328, 1.54110350
1.39642400, 1.42302495, 1.33229126, 1.12915898, 1.45773797, 4.48608961, 1.54919334, 1.42302495
1.25499004, 1.42302495, 1.34164079, 1.28452326, 1.46628783, 1.35092561, 1.23490890, 1.32287566
1.37840488, 1.35092561, 1.68077363, 1.48323970, 1.55724115, 5.56551884, 1.98116128, 1.40534693
1.68077363, 1.47478812, 1.83030052, 1.62018517, 2.28582589, 9.55248659, 3.14245127, 1.51657509
1.85741756, 2.04939015, 2.89827535, 1.83030052, 2.27486263, 8.26740588, 2.80178515, 1.50000000
2.00624026, 3.44601219, 4.88364618, 2.72946881, 1.71755640, 5.13809303, 1.52479507, 1.92353841
1.80969611, 3.44601219, 5.16962281, 2.81957444, 3.84057287, 8.74785688, 2.20227155, 1.89076704
1.62018517, 2.89827535, 4.58257569, 2.52487623, 4.39033028, 8.11634154, 2.36643191, 1.37840488
1.61245155, 2.48495473, 3.79143772, 2.37697286, 3.18590646, 3.17804972, 1.69558250, 1.59687194
1.34164079, 1.46628783, 2.16217483, 1.65075740, 2.26936114, 1.53297097, 1.50831031, 1.62788206
1.39642400, 1.46628783, 1.52479507, 1.30384048, 1.42302495, 1.14017543, 1.58902486, 1.40534693
1.38744369, 1.24498996, 1.30384048, 1.23490890, 1.29421791, 1.29421791, 1.36930639, 1.64316767
1.28452326, 1.40534693, 1.62018517, 1.30384048, 1.36014705, 1.36930639, 1.26491106, 1.51657509
1.45773797, 1.88414437, 2.13307290, 1.44048603, 1.44913767, 1.41421356, 2.07364414, 1.47478812
1.46628783, 2.08566536, 3.73162163, 2.50499501, 1.76776695, 3.08625987, 4.29243521, 1.67332005
1.20415946, 1.80277564, 3.67083097, 2.81957444, 3.08220700, 4.41871022, 6.38944442, 1.54110350
1.18321596, 1.49164339, 2.61725047, 4.70106371, 4.32145809, 4.29243521, 6.12168278, 1.38744369
1.54110350, 1.40534693, 2.61247010, 6.38944442, 3.78813938, 2.88530761, 3.66401419, 1.42302495
1.52479507, 1.36014705, 1.83711731, 4.81663783, 2.01866292, 1.36014705, 1.66583312, 1.55724115
1.33229126, 1.46628783, 1.38744369, 1.55724115, 1.37840488, 1.36930639, 1.50831031, 1.44913767
1.36014705, 1.41421356, 1.27475488, 1.37840488, 1.36930639, 1.38744369, 1.46628783, 1.22474487
1.29421791, 1.17260394, 1.29421791, 1.36930639, 1.26491106, 1.46628783, 1.23490890, 1.23490890
1.16189500, 1.33229126, 1.54110350, 1.32287566, 1.38744369, 1.48323970, 1.19373364, 1.32287566
1.21449578, 1.33229126, 1.50831031, 1.38744369, 1.44913767, 1.35092561, 1.22474487, 1.36014705
1.29421791, 1.35092561, 1.30384048, 1.30384048, 1.26491106, 1.44048603, 1.32287566, 1.47478812
1.34164079, 1.62788206, 1.37840488, 1.14017543, 1.23490890, 1.32287566, 1.33229126, 1.52479507
1.44048603, 1.68077363, 1.37840488, 1.37840488, 1.24498996, 1.49164339, 1.31339255, 1.40534693
1.31339255, 1.40534693, 1.34164079, 1.56524758, 1.28452326, 1.54919334, 1.30384048, 1.16189500
1.34164079, 1.11803399, 1.34164079, 1.45773797, 1.28452326, 1.33229126, 1.24498996, 1.19373364
1.40534693, 1.48323970, 1.31339255, 1.39642400, 1.42302495, 1.57321327, 1.27475488, 1.43178211
2.04328167, 1.68077363, 1.33229126, 1.60468065, 1.78185297, 1.63554272, 1.55724115, 1.67332005
2.07364414, 1.46628783, 1.30384048, 2.07364414, 2.69722079, 2.52487623, 1.73205081, 1.49164339
1.43178211, 1.35092561, 1.50000000, 1.99374020, 2.69722079, 3.10241841, 1.60468065, 1.16189500
1.32287566, 1.43178211, 1.71755640, 1.58113883, 2.33452351, 2.76586334, 1.43178211, 1.22474487
1.18321596, 1.62788206, 1.74642492, 1.48323970, 2.56904652, 2.36114379, 1.41421356, 1.43178211
1.40534693, 1.79582850, 2.36114379, 1.44048603, 2.15638587, 2.13892496, 1.47478812, 1.54919334
1.62018517, 1.71026314, 2.33987179, 1.47478812, 1.76776695, 1.73205081, 1.32287566, 1.31339255
1.59687194, 1.50000000, 1.61245155, 1.68077363, 3.26726185, 8.44985207, 1.44913767, 1.31339255
1.70293864, 1.45773797, 1.33229126, 1.81659021, 3.26343377, 9.74807673, 1.61245155, 1.41421356
1.54919334, 1.50000000, 1.39642400, 1.54919334, 1.63554272, 5.21056619, 1.43178211, 1.41421356
1.58113883, 1.76776695, 1.49164339, 1.55724115, 1.67332005, 2.29128785, 1.50831031, 1.46628783
1.62018517, 1.66583312, 1.36930639, 1.51657509, 1.58113883, 1.85741756, 1.38744369, 1.54919334
1.12915898, 1.33229126, 1.46628783, 1.31339255, 1.37840488, 1.37840488, 1.26491106, 1.44913767
1.30384048, 1.55724115, 1.49164339, 1.40534693, 1.35092561, 1.26491106, 1.32287566, 1.42302495
1.46628783, 1.62788206, 1.45773797, 1.16189500, 1.42302495, 1.25499004, 1.15108644, 1.54110350
1.32287566, 1.51657509, 1.36014705, 1.21449578, 1.52479507, 1.43178211, 1.19373364, 1.34164079
1.30384048, 1.43178211, 1.27475488, 1.34164079, 1.41421356, 1.38744369, 1.36930639, 1.21449578
1.28452326, 1.37840488, 1.26491106, 1.36930639, 1.31339255, 1.28452326, 1.35092561, 1.20415946
1.26491106, 1.47478812, 1.27475488, 1.48323970, 1.37840488, 1.30384048, 1.34164079, 1.33229126
1.26491106, 1.58902486, 1.26491106, 1.44913767, 1.34164079, 1.36014705, 1.40534693, 1.31339255
1.22474487, 1.70293864, 1.28452326, 1.40534693, 1.32287566, 1.46628783, 1.41421356, 1.44048603
1.19373364, 1.65075740, 1.29421791, 1.24498996, 1.32287566, 1.43178211, 1.32287566, 1.42302495
1.15108644, 1.39642400, 1.28452326, 1.26491106, 1.30384048, 1.24498996, 1.21449578, 1.34164079
1.44048603, 1.31339255, 1.35092561, 1.38744369, 1.32287566, 1.27475488, 1.32287566, 1.48323970
1.68077363, 1.44913767, 1.48323970, 1.37840488, 1.44913767, 1.51657509, 1.46628783, 1.27475488
1.47478812, 1.48323970, 1.47478812, 1.17260394, 1.49164339, 1.32287566, 1.36014705, 1.18321596
1.24498996, 1.49164339, 1.35092561, 1.27475488, 1.34164079, 1.23490890, 1.36014705, 1.33229126
1.23490890, 1.36930639, 1.29421791, 1.34164079, 1.33229126, 1.37840488, 1.43178211, 1.36014705
1.34164079, 1.24498996, 1.23490890, 1.11803399, 1.31339255, 1.49164339, 1.37840488, 1.31339255
1.37840488, 1.37840488, 1.36014705, 1.20415946, 1.34164079, 1.41421356, 1.32287566, 1.19373364
1.32287566, 1.36014705, 1.44048603, 1.46628783, 1.27475488, 1.43178211, 1.25499004, 1.06066017
1.43178211, 1.32287566, 1.43178211, 1.47478812, 1.24498996, 1.60468065, 1.28452326, 1.22474487
1.37840488, 1.36930639, 1.34164079, 1.36930639, 1.34164079, 1.48323970, 1.16189500, 1.31339255
1.25499004, 1.32287566, 1.30384048, 1.32287566, 1.21449578, 1.29421791, 1.30384048, 1.29421791
1.28452326, 1.18321596, 1.53297097, 1.36014705, 1.25499004, 1.35092561, 1.42302495, 1.30384048
1.07238053, 1.17260394, 1.46628783, 1.43178211, 1.23490890, 1.30384048, 1.33229126, 1.32287566
1.19373364, 1.41421356, 1.21449578, 1.38744369, 1.22474487, 1.15108644, 1.46628783, 1.34164079
1.38744369, 1.44913767, 1.27475488, 1.40534693, 1.49164339, 1.24498996, 1.51657509, 1.42302495
1.35092561, 1.36930639, 1.50831031, 1.32287566, 1.48323970, 1.33229126, 1.54110350, 1.41421356
1.33229126, 1.42302495, 1.51657509, 1.31339255, 1.21449578, 1.25499004, 1.49164339, 1.28452326
1.20415946, 1.34164079, 1.37840488, 1.44048603, 1.23490890, 1.23490890, 1.18321596, 1.42302495
1.21449578, 1.31339255, 1.28452326, 1.30384048, 1.42302495, 1.31339255, 1.21449578, 1.50000000
1.19373364, 1.43178211, 1.20415946, 1.16189500, 1.31339255, 1.39642400, 1.23490890, 1.39642400
1.27475488, 1.44048603, 1.28452326, 1.32287566, 1.16189500, 1.44913767, 0.97467943, 1.29421791
1.31339255, 1.28452326, 1.35092561, 1.33229126, 1.32287566, 1.28452326, 1.12915898, 1.36930639
1.44913767, 1.25499004, 1.45773797, 1.35092561, 1.43178211, 1.27475488, 1.31339255, 1.48323970
1.60468065, 1.47478812, 1.38744369, 1.48323970, 1.37840488, 1.30384048, 1.35092561, 1.58113883
1.34164079, 1.41421356, 1.20415946, 1.35092561, 1.36930639, 1.38744369, 1.34164079, 1.57321327
1.14017543, 1.35092561, 1.38744369, 1.10679718, 1.41421356, 1.44913767, 1.32287566, 1.45773797
1.16189500, 1.44048603, 1.47478812, 1.26491106, 1.41421356, 1.57321327, 1.35092561, 1.30384048
1.15108644, 1.45773797, 1.49164339, 1.35092561, 1.28452326, 1.46628783, 1.33229126, 1.23490890
1.06066017, 1.48323970, 1.52479507, 1.45773797, 1.44048603, 1.11803399, 1.34164079, 1.28452326
1.16189500, 1.29421791, 1.33229126, 1.58902486, 1.49164339, 1.16189500, 1.33229126, 1.27475488
1.38744369, 1.21449578, 1.24498996, 1.49164339, 1.45773797, 1.21449578, 1.21449578, 1.35092561
1.34164079, 1.45773797, 1.27475488, 1.41421356, 1.38744369, 1.39642400, 1.20415946, 1.35092561
1.17260394, 1.44048603, 1.51657509, 1.41421356, 1.22474487, 1.47478812, 1.28452326, 1.31339255
1.30384048, 1.52479507, 1.54919334, 1.28452326, 1.36930639, 1.43178211, 1.26491106, 1.20415946
1.46628783, 1.64316767, 1.43178211, 1.26491106, 1.51657509, 1.28452326, 1.16189500, 1.27475488
1.35092561, 1.58113883, 1.40534693, 1.36930639, 1.50000000, 1.36014705, 1.16189500, 1.36930639
1.40534693, 1.50831031, 1.36930639, 1.32287566, 1.30384048, 1.44048603, 1.25499004, 1.28452326
1.36930639, 1.49164339, 1.47478812, 1.33229126, 1.44048603, 1.30384048, 1.22474487, 1.36930639
1.12915898, 1.43178211, 1.43178211, 1.33229126, 1.50831031, 1.31339255, 1.27475488, 1.58902486
1.19373364, 1.24498996, 1.31339255, 1.33229126, 1.29421791, 1.24498996, 1.31339255, 1.53297097
1.30384048, 1.22474487, 1.36930639, 1.44048603, 1.34164079, 1.18321596, 1.31339255, 1.32287566
1.28452326, 1.38744369, 1.48323970, 1.24498996, 1.43178211, 1.37840488, 1.34164079, 1.22474487
1.21449578, 1.36014705, 1.35092561, 0.96176920, 1.31339255, 1.41421356, 1.41421356, 1.31339255
1.21449578, 1.30384048, 1.34164079, 1.39642400, 1.24498996, 1.22474487, 1.27475488, 1.37840488
1.21449578, 1.43178211, 1.40534693, 1.59687194, 1.38744369, 1.25499004, 1.16189500, 1.41421356
1.32287566, 1.57321327, 1.36014705, 1.41421356, 1.46628783, 1.42302495, 1.41421356, 1.39642400
1.25499004, 1.76068169, 1.31339255, 1.31339255, 1.40534693, 1.39642400, 1.31339255, 1.20415946
1.29421791, 1.58113883, 1.25499004, 1.30384048, 1.50831031, 1.43178211, 1.17260394, 1.31339255
1.32287566, 1.31339255, 1.33229126, 1.22474487, 1.50000000, 1.37840488, 1.30384048, 1.34164079
1.32287566, 1.44913767, 1.41421356, 1.25499004, 1.29421791, 1.19373364, 1.37840488, 1.23490890
1.31339255, 1.46628783, 1.33229126, 1.44048603, 1.36014705, 1.46628783, 1.21449578, 1.22474487
1.32287566, 1.29421791, 1.38744369, 1.38744369, 1.41421356, 1.53297097, 1.04880885, 1.16189500
1.54919334, 1.30384048, 1.42302495, 1.30384048, 1.48323970, 1.25499004, 1.32287566, 1.23490890
1.44048603, 1.45773797, 1.33229126, 1.25499004, 1.43178211, 1.22474487, 1.39642400, 1.36930639
1.35092561, 1.42302495, 1.37840488, 1.25499004, 1.30384048, 1.40534693, 1.26491106, 1.37840488
1.18321596, 1.48323970, 1.45773797, 1.30384048, 1.34164079, 1.38744369, 1.37840488, 1.17260394
1.19373364, 1.36014705, 1.54919334, 1.18321596, 1.50000000, 1.29421791, 1.43178211, 1.21449578
1.43178211, 1.18321596, 1.42302495, 1.16189500, 1.40534693, 1.45773797, 1.34164079, 1.40534693
1.40534693, 1.27475488, 1.38744369, 1.32287566, 1.24498996, 1.54110350, 1.34164079, 1.50000000
1.44048603, 1.28452326, 1.66583312, 1.39642400, 1.30384048, 1.31339255, 1.53297097, 1.52479507
1.58902486, 1.47478812, 1.55724115, 1.45773797, 1.36014705, 1.26491106, 1.58113883, 1.26491106
1.50831031, 1.51657509, 1.31339255, 1.44913767, 1.36930639, 1.44048603, 1.37840488, 1.30384048
1.27475488, 1.40534693, 1.36930639, 1.26491106, 1.23490890, 1.45773797, 1.28452326, 1.46628783
1.44048603, 1.36014705, 1.42302495, 1.38744369, 1.33229126, 1.26491106, 1.34164079, 1.35092561
1.58902486, 1.38744369, 1.38744369, 1.38744369, 1.43178211, 1.06066017, 1.33229126, 1.20415946
1.47478812, 1.46628783, 1.31339255, 1.12915898, 1.47478812, 1.31339255, 1.22474487, 1.14017543
1.30384048, 1.43178211, 1.44913767, 1.09544512, 1.51657509, 1.61245155, 1.24498996, 1.29421791
1.36014705, 1.36014705, 1.46628783, 1.17260394, 1.36930639, 1.50000000, 1.27475488, 1.36014705
1.28452326, 1.32287566, 1.40534693, 1.23490890, 1.26491106, 1.34164079, 1.41421356, 1.30384048
1.06066017, 1.30384048, 1.33229126, 1.26491106, 1.22474487, 1.33229126, 1.39642400, 1.29421791
1.15108644, 1.37840488, 1.29421791, 1.35092561, 1.35092561, 1.38744369, 1.35092561, 1.48323970
1.29421791, 1.43178211, 1.42302495, 1.36930639, 1.58902486, 1.41421356, 1.41421356, 1.36014705
1.36014705, 1.32287566, 1.47478812, 1.21449578, 1.43178211, 1.36014705, 1.37840488, 1.04880885
1.31339255, 1.33229126, 1.45773797, 1.38744369, 1.20415946, 1.36014705, 1.23490890, 1.16189500
1.15108644, 1.46628783, 1.40534693, 1.50831031, 1.29421791, 1.37840488, 1.28452326, 1.17260394
1.21449578, 1.28452326, 1.50000000, 1.29421791, 1.29421791, 1.38744369, 1.41421356, 1.03682207
1.24498996, 1.43178211, 1.45773797, 1.36014705, 1.42302495, 1.50831031, 1.30384048, 1.07238053
1.23490890, 1.52479507, 1.25499004, 1.33229126, 1.43178211, 1.51657509, 1.34164079, 1.40534693
1.19373364, 1.47478812, 1.22474487, 1.17260394, 1.27475488, 1.38744369, 1.34164079, 1.37840488
1.19373364, 1.53297097, 1.36014705, 1.29421791, 1.32287566, 1.47478812, 1.42302495, 1.22474487
1.29421791, 1.35092561, 1.36014705, 1.27475488, 1.44913767, 1.36930639, 1.38744369, 1.36014705
1.39642400, 1.43178211, 1.25499004, 1.34164079, 1.36930639, 1.39642400, 1.35092561, 1.49164339
1.38744369, 1.49164339, 1.33229126, 1.40534693, 1.33229126, 1.42302495, 1.50831031, 1.48323970
1.32287566, 1.56524758, 1.37840488, 1.40534693, 1.48323970, 1.34164079, 1.42302495, 1.35092561
1.43178211, 1.63554272, 1.39642400, 1.47478812, 1.42302495, 1.32287566, 1.31339255, 1.36930639
1.31339255, 1.36014705, 1.51657509, 1.49164339, 1.32287566, 1.37840488, 1.35092561, 1.41421356
1.57321327, 1.25499004, 1.68819430, 1.36014705, 1.34164079, 1.45773797, 1.41421356, 1.37840488
1.59687194, 1.35092561, 1.46628783, 1.16189500, 1.26491106, 1.34164079, 1.32287566, 1.40534693
1.27475488, 1.40534693, 1.20415946, 1.34164079, 1.15108644, 1.39642400, 1.17260394, 1.27475488
1.24498996, 1.42302495, 1.53297097, 1.47478812, 1.24498996, 1.42302495, 1.28452326, 1.10679718
1.44048603, 1.36014705, 1.68077363, 1.27475488, 1.38744369, 1.44048603, 1.42302495, 1.32287566
1.44048603, 1.36014705, 1.51657509, 1.06066017, 1.62788206, 1.41421356, 1.36014705, 1.37840488
1.30384048, 1.51657509, 1.43178211, 1.14017543, 1.65831240, 1.16189500, 1.26491106, 1.22474487
1.31339255, 1.52479507, 1.36014705, 1.17260394, 1.41421356, 1.16189500, 1.26491106, 1.23490890
1.28452326, 1.47478812, 1.30384048, 1.26491106, 1.50831031, 1.34164079, 1.17260394, 1.29421791
1.45773797, 1.50000000, 1.24498996, 1.41421356, 1.63554272, 1.47478812, 1.22474487, 1.28452326
1.38744369, 1.52479507, 1.21449578, 1.44048603, 1.50831031, 1.41421356, 1.31339255, 1.36930639
1.30384048, 1.54919334, 1.32287566, 1.33229126, 1.47478812, 1.06066017, 1.33229126, 1.39642400
1.39642400, 1.31339255, 1.26491106, 1.48323970, 1.41421356, 0.97467943, 1.41421356, 1.24498996
1.36014705, 1.33229126, 1.28452326, 1.49164339, 1.29421791, 1.22474487, 1.66583312, 1.21449578
1.34164079, 1.40534693, 1.57321327, 1.21449578, 1.28452326, 1.44048603, 1.58113883, 1.24498996
1.38744369, 1.40534693, 1.48323970, 1.38744369, 1.44913767, 1.31339255, 1.25499004, 1.15108644
1.36930639, 1.56524758, 1.39642400, 1.54110350, 1.38744369, 1.34164079, 1.24498996, 1.36014705
1.23490890, 1.46628783, 1.50000000, 1.35092561, 1.37840488, 1.39642400, 1.11803399, 1.51657509
1.19373364, 1.35092561, 1.21449578, 1.33229126, 1.48323970, 1.52479507, 1.15108644, 1.25499004
1.20415946, 1.49164339, 1.31339255, 1.36930639, 1.43178211, 1.49164339, 1.20415946, 1.34164079
1.26491106, 1.58902486, 1.58902486, 1.40534693, 1.49164339, 1.28452326, 1.16189500, 1.41421356
1.30384048, 1.50831031, 1.53297097, 1.42302495, 1.44913767, 1.41421356, 1.41421356, 1.28452326
1.12915898, 1.39642400, 1.51657509, 1.24498996, 1.34164079, 1.48323970, 1.54110350, 1.37840488
1.04880885, 1.43178211, 1.52479507, 1.36014705, 1.51657509, 1.42302495, 1.48323970, 1.29421791
1.34164079, 1.42302495, 1.33229126, 1.48323970, 1.57321327, 1.34164079, 1.47478812, 1.36930639
1.34164079, 1.32287566, 1.37840488, 1.40534693, 1.39642400, 1.35092561, 1.35092561, 1.39642400
1.31339255, 1.25499004, 1.55724115, 1.46628783, 1.43178211, 1.39642400, 1.35092561, 1.25499004
1.57321327, 1.34164079, 1.50831031, 1.50000000, 1.51657509, 1.30384048, 1.39642400, 1.33229126
1.33229126, 1.35092561, 1.48323970, 1.45773797, 1.40534693, 1.27475488, 1.45773797, 1.45773797
1.16189500, 1.41421356, 1.47478812, 1.50000000, 1.25499004, 1.33229126, 1.44048603, 1.28452326
1.29421791, 1.45773797, 1.41421356, 1.53297097, 1.39642400, 1.36014705, 1.25499004, 1.28452326
1.38744369, 1.32287566, 1.34164079, 1.47478812, 1.51657509, 1.44913767, 1.44913767, 1.41421356
1.50831031, 1.36014705, 1.44048603, 1.23490890, 1.48323970, 1.31339255, 1.44048603, 1.25499004
1.27475488, 1.34164079, 1.50000000, 1.12915898, 1.36014705, 1.41421356, 1.12915898, 1.39642400
1.21449578, 1.32287566, 1.39642400, 1.22474487, 1.32287566, 1.44048603, 1.29421791, 1.41421356
1.24498996, 1.39642400, 1.39642400, 1.28452326, 1.35092561, 1.25499004, 1.27475488, 1.30384048
1.26491106, 1.44048603, 1.37840488, 1.26491106, 1.27475488, 1.30384048, 1.03682207, 1.26491106
1.38744369, 1.42302495, 1.34164079, 1.25499004, 1.60468065, 1.41421356, 1.12915898, 1.29421791
1.38744369, 1.33229126, 1.37840488, 1.30384048, 1.80969611, 1.36014705, 1.31339255, 1.36930639
1.39642400, 1.20415946, 1.50000000, 1.36930639, 1.65075740, 1.37840488, 1.46628783, 1.48323970
1.22474487, 1.32287566, 1.40534693, 1.50831031, 1.43178211, 1.54919334, 1.36014705, 1.49164339
1.34164079, 1.37840488, 1.36930639, 1.46628783, 1.32287566, 1.47478812, 1.20415946, 1.37840488
1.61245155, 1.34164079, 1.42302495, 1.51657509, 1.63554272, 1.39642400, 1.28452326, 1.37840488
1.40534693, 1.47478812, 1.21449578, 1.53297097, 1.59687194, 1.32287566, 1.24498996, 1.40534693
1.24498996, 1.58902486, 1.36930639, 1.24498996, 1.34164079, 1.34164079, 1.18321596, 1.45773797
1.34164079, 1.55724115, 1.47478812, 1.37840488, 1.34164079, 1.32287566, 1.43178211, 1.58113883
1.33229126, 1.28452326, 1.36014705, 1.53297097, 1.41421356, 1.22474487, 1.42302495, 1.48323970
1.48323970, 1.35092561, 1.36930639, 1.45773797, 1.55724115, 1.21449578, 1.37840488, 1.22474487
1.28452326, 1.53297097, 1.38744369, 1.38744369, 1.42302495, 1.35092561, 1.38744369, 1.31339255
1.03682207, 1.35092561, 1.46628783, 1.33229126, 1.30384048, 1.43178211, 1.18321596, 1.33229126
1.18321596, 1.44913767, 1.41421356, 1.17260394, 1.35092561, 1.27475488, 1.29421791, 1.34164079
1.12915898, 1.52479507, 1.21449578, 1.38744369, 1.36930639, 1.43178211, 1.42302495, 1.47478812
1.16189500, 1.40534693, 1.17260394, 1.50000000, 1.33229126, 1.44913767, 1.47478812, 1.36014705
1.44913767, 1.36014705, 1.40534693, 1.26491106, 1.35092561, 1.20415946, 1.47478812, 1.20415946
1.35092561, 1.40534693, 1.54919334, 1.08397417, 1.41421356, 1.44913767, 1.34164079, 1.09544512
1.09544512, 1.44913767, 1.34164079, 1.25499004, 1.50831031, 1.44048603, 1.36014705, 1.16189500
1.22474487, 1.26491106, 1.47478812, 1.44048603, 1.59687194, 1.21449578, 1.45773797, 1.35092561
1.15108644, 1.32287566, 1.56524758, 1.29421791, 1.47478812, 1.34164079, 1.38744369, 1.47478812
1.08397417, 1.51657509, 1.36014705, 1.26491106, 1.31339255, 1.30384048, 1.21449578, 1.54919334
1.36014705, 1.36014705, 1.35092561, 1.25499004, 1.32287566, 1.34164079, 1.20415946, 1.37840488
1.49164339, 1.34164079, 1.36014705, 1.47478812, 1.44913767, 1.30384048, 1.35092561, 1.18321596
1.27475488, 1.39642400, 1.39642400, 1.47478812, 1.33229126, 1.30384048, 1.32287566, 1.26491106
1.15108644, 1.34164079, 1.52479507, 1.25499004, 1.12915898, 1.33229126, 1.21449578, 1.27475488
1.25499004, 1.44048603, 1.54110350, 1.36014705, 1.11803399, 1.22474487, 1.17260394, 1.19373364
1.31339255, 1.50000000, 1.46628783, 1.29421791, 1.28452326, 1.44913767, 1.16189500, 1.16189500
1.50000000, 1.36014705, 1.45773797, 1.34164079, 1.37840488, 1.44048603, 1.31339255, 1.22474487
1.45773797, 1.21449578, 1.31339255, 1.44048603, 1.29421791, 1.17260394, 1.42302495, 1.24498996
1.10679718, 1.16189500, 1.35092561, 1.35092561, 1.28452326, 1.39642400, 1.44913767, 1.24498996
1.12915898, 1.31339255, 1.36014705, 1.39642400, 1.47478812, 1.40534693, 1.42302495, 1.37840488
1.36014705, 1.36930639, 1.40534693, 1.51657509, 1.54110350, 1.17260394, 1.43178211, 1.36930639
1.45773797, 1.35092561, 1.54919334, 1.50831031, 1.42302495, 1.27475488, 1.47478812, 1.38744369
1.49164339, 1.51657509, 1.34164079, 1.35092561, 1.46628783, 1.38744369, 1.42302495, 1.40534693
1.36014705, 1.47478812, 1.26491106, 1.20415946, 1.36014705, 1.50000000, 1.29421791, 1.22474487
1.33229126, 1.48323970, 1.38744369, 1.08397417, 1.37840488, 1.48323970, 1.15108644, 1.20415946
1.38744369, 1.50000000, 1.24498996, 1.45773797, 1.34164079, 1.35092561, 1.09544512, 1.46628783
1.33229126, 1.45773797, 1.14017543, 1.65831240, 1.17260394, 1.36930639, 1.04880885, 1.56524758
1.36930639, 1.35092561, 1.35092561, 1.44048603, 1.29421791, 1.39642400, 1.19373364, 1.56524758
1.32287566, 1.29421791, 1.39642400, 1.33229126, 1.24498996, 1.48323970, 1.30384048, 1.41421356
1.33229126, 1.35092561, 1.39642400, 1.36014705, 1.43178211, 1.37840488, 1.20415946, 1.22474487
1.51657509, 1.38744369, 1.47478812, 1.38744369, 1.59687194, 1.23490890, 1.27475488, 1.21449578
1.58113883, 1.38744369, 1.41421356, 1.52479507, 1.31339255, 1.35092561, 1.27475488, 1.39642400
1.35092561, 1.31339255, 1.47478812, 1.51657509, 1.35092561, 1.43178211, 1.24498996, 1.43178211
1.18321596, 1.37840488, 1.51657509, 1.39642400, 1.57321327, 1.45773797, 1.26491106, 1.33229126
1.35092561, 1.38744369, 1.31339255, 1.56524758, 1.33229126, 1.41421356, 1.14017543, 1.35092561
1.38744369, 1.41421356, 1.33229126, 1.62018517, 1.08397417, 1.56524758, 1.21449578, 1.25499004
1.23490890, 1.41421356, 1.44913767, 1.38744369, 1.30384048, 1.60468065, 1.37840488, 1.44913767
1.23490890, 1.41421356, 1.53297097, 1.21449578, 1.45773797, 1.46628783, 1.40534693, 1.51657509
1.37840488, 1.51657509, 1.43178211, 1.36930639, 1.33229126, 1.26491106, 1.24498996, 1.36014705
1.40534693, 1.44913767, 1.24498996, 1.51657509, 1.28452326, 1.39642400, 1.28452326, 1.24498996
1.24498996, 1.33229126, 1.26491106, 1.47478812, 1.25499004, 1.58113883, 1.35092561, 1.41421356
1.31339255, 1.27475488, 1.28452326, 1.34164079, 1.22474487, 1.33229126, 1.33229126, 1.51657509
1.34164079, 1.44913767, 1.33229126, 1.25499004, 1.38744369, 1.24498996, 1.34164079, 1.29421791
1.20415946, 1.38744369, 1.43178211, 1.34164079, 1.31339255, 1.36014705, 1.27475488, 1.24498996
1.16189500, 1.35092561, 1.51657509, 1.37840488, 1.27475488, 1.36930639, 1.26491106, 1.37840488
1.42302495, 1.51657509, 1.39642400, 1.38744369, 1.35092561, 1.38744369, 1.22474487, 1.57321327
1.50831031, 1.28452326, 1.38744369, 1.41421356, 1.48323970, 1.34164079, 1.20415946, 1.49164339
1.32287566, 1.18321596, 1.24498996, 1.41421356, 1.50000000, 1.37840488, 1.12915898, 1.10679718
1.36014705, 1.25499004, 1.12915898, 1.27475488, 1.40534693, 1.36930639, 1.16189500, 0.97467943
1.40534693, 1.25499004, 1.24498996, 1.28452326, 1.36930639, 1.20415946, 1.25499004, 1.26491106
1.26491106, 1.27475488, 1.36930639, 1.42302495, 1.47478812, 1.18321596, 1.33229126, 1.38744369
1.11803399, 1.41421356, 1.46628783, 1.20415946, 1.68819430, 1.07238053, 1.43178211, 1.30384048
1.35092561, 1.38744369, 1.41421356, 1.20415946, 1.52479507, 1.35092561, 1.33229126, 1.22474487
1.56524758, 1.17260394, 1.47478812, 1.33229126, 1.31339255, 1.43178211, 1.22474487, 1.25499004
1.45773797, 1.22474487, 1.46628783, 1.42302495, 1.41421356, 1.32287566, 1.15108644, 1.40534693
1.23490890, 1.29421791, 1.44913767, 1.44048603, 1.52479507, 1.36930639, 1.07238053, 1.36930639
1.24498996, 1.22474487, 1.47478812, 1.30384048, 1.36930639, 1.36930639, 1.08397417, 1.24498996
1.36930639, 1.32287566, 1.33229126, 1.32287566, 1.33229126, 1.32287566, 1.26491106, 1.22474487
1.41421356, 1.54919334, 1.31339255, 1.22474487, 1.32287566, 1.45773797, 1.39642400, 1.16189500
1.34164079, 1.44913767, 1.33229126, 1.30384048, 1.23490890, 1.51657509, 1.42302495, 1.22474487
1.30384048, 1.30384048, 1.27475488, 1.36014705, 1.31339255, 1.24498996, 1.39642400, 1.31339255
1.40534693, 1.30384048, 1.36930639, 1.20415946, 1.44048603, 1.23490890, 1.27475488, 1.23490890
1.46628783, 1.44048603, 1.26491106, 1.33229126, 1.39642400, 1.26491106, 1.35092561, 1.36014705
1.42302495, 1.57321327, 1.43178211, 1.33229126, 1.23490890, 1.32287566, 1.29421791, 1.39642400
1.34164079, 1.38744369, 1.47478812, 1.29421791, 1.38744369, 1.27475488, 1.20415946, 1.15108644
1.50831031, 1.42302495, 1.34164079, 1.35092561, 1.36014705, 1.18321596, 1.34164079, 1.28452326
1.50831031, 1.46628783, 1.34164079, 1.27475488, 1.33229126, 1.32287566, 1.28452326, 1.39642400
1.43178211, 1.36014705, 1.31339255, 1.25499004, 1.34164079, 1.32287566, 1.22474487, 1.36930639
1.42302495, 1.43178211, 1.39642400, 1.24498996, 1.32287566, 1.36930639, 1.25499004, 1.32287566
1.21449578, 1.46628783, 1.44048603, 1.36014705, 1.28452326, 1.38744369, 1.37840488, 1.39642400
1.16189500, 1.67332005, 1.34164079, 1.54919334, 1.25499004, 1.38744369, 1.36014705, 1.58902486
1.16189500, 1.66583312, 1.25499004, 1.47478812, 1.47478812, 1.30384048, 1.30384048, 1.43178211
1.15108644, 1.48323970, 1.36930639, 1.34164079, 1.68819430, 1.17260394, 1.29421791, 1.20415946
1.15108644, 1.35092561, 1.23490890, 1.19373364, 1.62788206, 1.22474487, 1.28452326, 1.16189500
1.18321596, 1.24498996, 1.26491106, 1.14017543, 1.43178211, 1.26491106, 1.39642400, 1.39642400
1.31339255, 1.48323970, 1.38744369, 1.36014705, 1.44048603, 1.45773797, 1.46628783, 1.44913767
1.35092561, 1.58113883, 1.43178211, 1.42302495, 1.32287566, 1.42302495, 1.43178211, 1.20415946
1.20415946, 1.32287566, 1.30384048, 1.36014705, 1.23490890, 1.40534693, 1.24498996, 1.20415946
1.09544512, 1.23490890, 1.22474487, 1.35092561, 1.34164079, 1.43178211, 1.24498996, 1.22474487
1.26491106, 1.23490890, 1.42302495, 1.27475488, 1.37840488, 1.27475488, 1.21449578, 1.25499004
1.36930639, 1.36014705, 1.47478812, 1.20415946, 1.55724115, 1.24498996, 1.04880885, 1.30384048
1.34164079, 1.35092561, 1.36930639, 1.34164079, 1.47478812, 1.34164079, 1.08397417, 1.36930639
1.27475488, 1.39642400, 1.24498996, 1.42302495, 1.20415946, 1.32287566, 1.21449578, 1.39642400
1.36014705, 1.47478812, 1.30384048, 1.26491106, 1.44048603, 1.26491106, 1.30384048, 1.36930639
1.48323970, 1.22474487, 1.31339255, 1.34164079, 1.65831240, 1.39642400, 1.37840488, 1.61245155
1.32287566, 1.36930639, 1.34164079, 1.44913767, 1.45773797, 1.34164079, 1.34164079, 1.58113883
1.23490890, 1.35092561, 1.33229126, 1.44048603, 1.23490890, 1.26491106, 1.37840488, 1.29421791
1.25499004, 1.28452326, 1.40534693, 1.42302495, 1.21449578, 1.11803399, 1.36014705, 1.26491106
1.11803399, 1.32287566, 1.37840488, 1.41421356, 1.25499004, 1.12915898, 1.14017543, 1.25499004
1.11803399, 1.20415946, 1.29421791, 1.35092561, 1.35092561, 1.28452326, 1.14017543, 1.39642400
1.21449578, 1.24498996, 1.25499004, 1.28452326, 1.29421791, 1.28452326, 1.40534693, 1.50000000
1.28452326, 1.42302495, 1.21449578, 1.36930639, 1.30384048, 1.31339255, 1.36930639, 1.36930639
1.33229126, 1.51657509, 1.34164079, 1.29421791, 1.21449578, 1.36014705, 1.24498996, 1.24498996
1.22474487, 1.50000000, 1.43178211, 1.34164079, 1.30384048, 1.35092561, 1.23490890, 1.16189500
1.30384048, 1.42302495, 1.57321327, 1.56524758, 1.44048603, 1.32287566, 1.11803399, 1.06066017
1.46628783, 1.42302495, 1.35092561, 1.62788206, 1.24498996, 1.30384048, 1.22474487, 1.10679718
1.36930639, 1.43178211, 1.14017543, 1.47478812, 1.35092561, 1.32287566, 1.27475488, 1.29421791
1.14017543, 1.52479507, 1.18321596, 1.39642400, 1.28452326, 1.38744369, 1.35092561, 1.25499004
1.36014705, 1.50831031, 1.27475488, 1.32287566, 1.33229126, 1.33229126, 1.36014705, 1.29421791
1.51657509, 1.39642400, 1.42302495, 1.12915898, 1.50831031, 1.45773797, 1.19373364, 1.44913767
1.33229126, 1.50831031, 1.35092561, 1.30384048, 1.36014705, 1.38744369, 1.16189500, 1.54110350
1.33229126, 1.37840488, 1.42302495, 1.41421356, 1.40534693, 1.32287566, 1.35092561, 1.44913767
1.42302495, 1.36014705, 1.55724115, 1.46628783, 1.60468065, 1.37840488, 1.33229126, 1.29421791
1.16189500, 1.60468065, 1.53297097, 1.54110350, 1.62018517, 1.35092561, 1.12915898, 1.27475488
1.14017543, 1.54110350, 1.42302495, 1.40534693, 1.56524758, 1.48323970, 1.27475488, 1.28452326
1.35092561, 1.44913767, 1.44048603, 1.36930639, 1.54919334, 1.43178211, 1.50000000, 1.33229126
1.32287566, 1.59687194, 1.50831031, 1.21449578, 1.43178211, 1.36014705, 1.45773797, 1.34164079
1.37840488, 1.47478812, 1.37840488, 1.20415946, 1.37840488, 1.36014705, 1.35092561, 1.31339255
1.36014705, 1.18321596, 1.23490890, 1.35092561, 1.30384048, 1.35092561, 1.38744369, 1.47478812
1.31339255, 1.24498996, 1.35092561, 1.43178211, 1.23490890, 1.22474487, 1.36930639, 1.61245155
1.26491106, 1.48323970, 1.54110350, 1.34164079, 1.28452326, 1.29421791, 1.30384048, 1.41421356
1.43178211, 1.42302495, 1.44048603, 1.14017543, 1.34164079, 1.40534693, 1.35092561, 1.24498996
1.50000000, 1.28452326, 1.45773797, 1.22474487, 1.50831031, 1.30384048, 1.37840488, 1.14017543
1.38744369, 1.42302495, 1.47478812, 1.38744369, 1.45773797, 1.36930639, 1.25499004, 1.12915898
1.41421356, 1.49164339, 1.42302495, 1.42302495, 1.36014705, 1.36930639, 1.20415946, 1.25499004
1.51657509, 1.31339255, 1.37840488, 1.25499004, 1.44913767, 1.50831031, 1.30384048, 1.22474487
1.42302495, 1.31339255, 1.30384048, 1.28452326, 1.43178211, 1.50831031, 1.31339255, 1.32287566
1.22474487, 1.39642400, 1.50000000, 1.36014705, 1.25499004, 1.28452326, 1.48323970, 1.40534693
1.22474487, 1.22474487, 1.38744369, 1.35092561, 1.28452326, 1.23490890, 1.57321327, 1.29421791
1.36014705, 1.39642400, 1.26491106, 1.48323970, 1.36014705, 1.26491106, 1.33229126, 1.43178211
1.47478812, 1.48323970, 1.47478812, 1.44048603, 1.23490890, 1.27475488, 1.35092561, 1.49164339
1.29421791, 1.39642400, 1.42302495, 1.35092561, 1.29421791, 1.33229126, 1.44913767, 1.36014705
1.02469508, 1.36930639, 1.33229126, 1.28452326, 1.46628783, 1.31339255, 1.40534693, 1.12915898
1.09544512, 1.38744369, 1.41421356, 1.22474487, 1.41421356, 1.44048603, 1.46628783, 1.15108644
1.35092561, 1.58902486, 1.44048603, 1.37840488, 1.45773797, 1.44913767, 1.55724115, 1.34164079
1.35092561, 1.57321327, 1.36014705, 1.44913767, 1.63554272, 1.12915898, 1.40534693, 1.39642400
1.31339255, 1.36014705, 1.31339255, 1.50000000, 1.48323970, 1.08397417, 1.19373364, 1.27475488
1.47478812, 1.30384048, 1.45773797, 1.63554272, 1.32287566, 1.29421791, 1.36014705, 1.20415946
1.49164339, 1.36930639, 1.50000000, 1.55724115, 1.24498996, 1.38744369, 1.36930639, 1.19373364
1.58113883, 1.33229126, 1.50000000, 1.42302495, 1.33229126, 1.45773797, 1.17260394, 1.32287566
1.37840488, 1.36014705, 1.38744369, 1.43178211, 1.50831031, 1.49164339, 1.11803399, 1.40534693
1.17260394, 1.51657509, 1.45773797, 1.32287566, 1.54110350, 1.25499004, 1.21449578, 1.39642400
1.44048603, 1.44048603, 1.50000000, 1.59687194, 1.46628783, 1.34164079, 1.42302495, 1.44913767
1.37840488, 1.43178211, 1.39642400, 1.57321327, 1.32287566, 1.60468065, 1.22474487, 1.34164079
1.10679718, 1.43178211, 1.39642400, 1.37840488, 1.32287566, 1.41421356, 0.94868330, 1.40534693
1.08397417, 1.26491106, 1.41421356, 1.36014705, 1.45773797, 1.25499004, 1.25499004, 1.43178211
1.22474487, 1.37840488, 1.46628783, 1.31339255, 1.45773797, 1.33229126, 1.35092561, 1.48323970
1.46628783, 1.54110350, 1.39642400, 1.50831031, 1.42302495, 1.32287566, 1.16189500, 1.47478812
1.37840488, 1.45773797, 1.46628783, 1.44048603, 1.40534693, 1.40534693, 1.30384048, 1.35092561
1.20415946, 1.33229126, 1.34164079, 1.28452326, 1.20415946, 1.37840488, 1.43178211, 1.42302495
1.33229126, 1.42302495, 1.26491106, 1.40534693, 1.22474487, 1.32287566, 1.36930639, 1.47478812
1.35092561, 1.27475488, 1.46628783, 1.43178211, 1.61245155, 1.49164339, 1.44913767, 1.29421791
1.19373364, 0.98742088, 1.46628783, 1.23490890, 1.46628783, 1.52479507, 1.53297097, 1.26491106
1.07238053, 1.26491106, 1.40534693, 1.19373364, 1.11803399, 1.41421356, 1.33229126, 1.50000000
1.04880885, 1.58902486, 1.40534693, 1.45773797, 1.26491106, 1.35092561, 1.11803399, 1.44048603
1.32287566, 1.44913767, 1.38744369, 1.39642400, 1.35092561, 1.33229126, 1.25499004, 1.27475488
1.42302495, 1.42302495, 1.41421356, 1.18321596, 1.44048603, 1.29421791, 1.46628783, 1.35092561
1.11803399, 1.44913767, 1.56524758, 1.31339255, 1.40534693, 1.16189500, 1.44913767, 1.29421791
1.03682207, 1.38744369, 1.51657509, 1.33229126, 1.27475488, 1.36014705, 1.34164079, 1.30384048
1.24498996, 1.55724115, 1.36014705, 1.21449578, 1.26491106, 1.51657509, 1.31339255, 1.50000000
1.32287566, 1.52479507, 1.42302495, 1.21449578, 1.38744369, 1.52479507, 1.35092561, 1.44048603
1.14017543, 1.45773797, 1.44913767, 1.20415946, 1.39642400, 1.46628783, 1.37840488, 1.29421791
1.27475488, 1.47478812, 1.35092561, 1.30384048, 1.27475488, 1.44048603, 1.29421791, 1.33229126
1.43178211, 1.38744369, 1.32287566, 1.44048603, 1.35092561, 1.50831031, 1.27475488, 1.36930639
1.26491106, 1.34164079, 1.27475488, 1.36014705, 1.44048603, 1.35092561, 1.31339255, 1.45773797
1.14017543, 1.30384048, 1.24498996, 1.39642400, 1.42302495, 1.33229126, 1.30384048, 1.42302495
1.12915898, 1.21449578, 1.31339255, 1.27475488, 1.39642400, 1.31339255, 1.28452326, 1.34164079
1.20415946, 1.36930639, 1.48323970, 1.26491106, 1.37840488, 1.10679718, 1.39642400, 1.45773797
1.37840488, 1.45773797, 1.53297097, 1.35092561, 1.44913767, 1.17260394, 1.34164079, 1.48323970
1.34164079, 1.28452326, 1.26491106, 1.35092561, 1.54919334, 1.33229126, 1.32287566, 1.50831031
1.31339255, 1.45773797, 1.58113883, 1.46628783, 1.34164079, 1.32287566, 1.44048603, 1.40534693
1.23490890, 1.57321327, 1.58902486, 1.52479507, 1.35092561, 1.11803399, 1.32287566, 1.18321596
1.21449578, 1.37840488, 1.28452326, 1.44048603, 1.38744369, 1.06066017, 1.25499004, 1.34164079
1.26491106, 1.32287566, 1.41421356, 1.33229126, 1.23490890, 1.23490890, 1.29421791, 1.44913767
1.38744369, 1.40534693, 1.38744369, 1.32287566, 1.39642400, 1.46628783, 1.36014705, 1.37840488
1.49164339, 1.51657509, 1.40534693, 1.35092561, 1.39642400, 1.59687194, 1.38744369, 1.26491106
1.38744369, 1.36930639, 1.36014705, 1.38744369, 1.36014705, 1.41421356, 1.27475488, 1.24498996
1.36014705, 1.29421791, 1.35092561, 1.50000000, 1.45773797, 1.27475488, 1.44048603, 1.22474487
1.37840488, 1.26491106, 1.40534693, 1.51657509, 1.34164079, 1.25499004, 1.39642400, 1.33229126
1.31339255, 1.18321596, 1.36930639, 1.41421356, 1.39642400, 1.18321596, 1.26491106, 1.39642400
1.41421356, 1.44048603, 1.28452326, 1.36930639, 1.53297097, 1.15108644, 1.44913767, 1.25499004
1.50000000, 1.50831031, 1.19373364, 1.29421791, 1.48323970, 1.36930639, 1.37840488, 1.22474487
1.32287566, 1.32287566, 1.46628783, 1.20415946, 1.36014705, 1.40534693, 1.23490890, 1.11803399
1.44048603, 1.31339255, 1.51657509, 1.24498996, 1.31339255, 1.28452326, 1.25499004, 1.23490890
1.47478812, 1.37840488, 1.42302495, 1.22474487, 1.40534693, 1.30384048, 1.25499004, 1.25499004
1.36930639, 1.46628783, 1.53297097, 1.14017543, 1.35092561, 1.27475488, 1.37840488, 1.34164079
1.35092561, 1.49164339, 1.44913767, 1.33229126, 1.32287566, 1.46628783, 1.44048603, 1.42302495
1.33229126, 1.32287566, 1.43178211, 1.22474487, 1.33229126, 1.41421356, 1.21449578, 1.25499004
1.54919334, 1.32287566, 1.47478812, 1.16189500, 1.31339255, 1.25499004, 1.36014705, 1.30384048
1.51657509, 1.45773797, 1.39642400, 1.21449578, 1.20415946, 1.32287566, 1.41421356, 1.35092561
1.29421791, 1.36930639, 1.32287566, 1.33229126, 1.33229126, 1.27475488, 1.19373364, 1.37840488
1.19373364, 1.21449578, 1.35092561, 1.56524758, 1.46628783, 1.15108644, 1.35092561, 1.44913767
1.11803399, 1.31339255, 1.33229126, 1.44913767, 1.25499004, 1.24498996, 1.31339255, 1.40534693
1.40534693, 1.48323970, 1.37840488, 1.38744369, 1.32287566, 1.44048603, 1.15108644, 1.31339255
1.47478812, 1.36014705, 1.34164079, 1.37840488, 1.55724115, 1.50831031, 1.33229126, 1.28452326
1.46628783, 1.23490890, 1.29421791, 1.36930639, 1.42302495, 1.36930639, 1.43178211, 1.30384048
1.57321327, 1.28452326, 1.42302495, 1.25499004, 1.34164079, 1.25499004, 1.29421791, 1.09544512
1.39642400, 1.29421791, 1.36014705, 1.41421356, 1.40534693, 1.21449578, 1.25499004, 1.11803399
1.25499004, 1.31339255, 1.47478812, 1.65831240, 1.43178211, 1.22474487, 1.29421791, 1.27475488
1.29421791, 1.44048603, 1.50831031, 1.50000000, 1.44913767, 1.29421791, 1.22474487, 1.24498996
1.33229126, 1.44048603, 1.36930639, 1.41421356, 1.29421791, 1.22474487, 1.16189500, 1.30384048
1.27475488, 1.45773797, 1.44048603, 1.30384048, 1.21449578, 1.29421791, 1.26491106, 1.27475488
1.40534693, 1.44048603, 1.33229126, 1.18321596, 1.33229126, 1.30384048, 1.16189500, 1.35092561
1.45773797, 1.36014705, 1.40534693, 1.43178211, 1.54919334, 1.21449578, 1.27475488, 1.44913767
1.43178211, 1.50000000, 1.57321327, 1.32287566, 1.58902486, 1.33229126, 1.41421356, 1.50831031
1.58113883, 1.67332005, 1.40534693, 1.17260394, 1.28452326, 1.44913767, 1.19373364, 1.58113883
1.46628783, 1.63554272, 1.28452326, 1.34164079, 1.22474487, 1.47478812, 1.17260394, 1.64316767
1.33229126, 1.44048603, 1.40534693, 1.37840488, 1.51657509, 1.44913767, 1.14017543, 1.37840488
1.26491106, 1.44048603, 1.41421356, 1.36930639, 1.46628783, 1.54110350, 1.21449578, 1.24498996
1.36014705, 1.44913767, 1.27475488, 1.24498996, 1.28452326, 1.53297097, 1.28452326, 1.52479507
1.42302495, 1.36014705, 1.31339255, 1.32287566, 1.28452326, 1.26491106, 1.29421791, 1.63554272
1.34164079, 1.24498996, 1.32287566, 1.37840488, 1.23490890, 1.27475488, 1.29421791, 1.58902486
1.20415946, 1.42302495, 1.16189500, 1.25499004, 1.32287566, 1.36930639, 1.45773797, 1.39642400
1.29421791, 1.52479507, 1.15108644, 1.29421791, 1.26491106, 1.26491106, 1.50000000, 1.32287566
1.38744369, 1.32287566, 1.29421791, 1.32287566, 1.18321596, 1.37840488, 1.23490890, 1.36014705
1.07238053, 1.38744369, 1.47478812, 1.32287566, 1.36930639, 1.49164339, 1.11803399, 1.34164079
1.33229126, 1.36014705, 1.48323970, 1.30384048, 1.36014705, 1.39642400, 1.30384048, 1.29421791
1.52479507, 1.26491106, 1.28452326, 1.28452326, 1.44048603, 1.40534693, 1.34164079, 1.26491106
1.54919334, 1.44048603, 1.46628783, 1.25499004, 1.50000000, 1.30384048, 1.31339255, 1.23490890
1.49164339, 1.50831031, 1.70293864, 1.24498996, 1.50831031, 1.26491106, 1.35092561, 1.34164079
1.39642400, 1.32287566, 1.50831031, 1.43178211, 1.52479507, 1.41421356, 1.52479507, 1.45773797
1.53297097, 1.19373364, 1.50831031, 1.48323970, 1.44048603, 1.53297097, 1.55724115, 1.33229126
1.39642400, 1.29421791, 1.50000000, 1.23490890, 1.46628783, 1.49164339, 1.23490890, 1.19373364
1.24498996, 1.18321596, 1.34164079, 1.42302495, 1.43178211, 1.41421356, 1.29421791, 1.33229126
1.34164079, 1.21449578, 1.42302495, 1.53297097, 1.38744369, 1.35092561, 1.33229126, 1.34164079
1.42302495, 1.27475488, 1.26491106, 1.30384048, 1.39642400, 1.33229126, 1.28452326, 1.36014705
1.35092561, 1.31339255, 1.20415946, 1.33229126, 1.39642400, 1.49164339, 1.22474487, 1.23490890
1.36014705, 1.44048603, 1.43178211, 1.44048603, 1.45773797, 1.50000000, 1.17260394, 1.11803399
1.27475488, 1.37840488, 1.47478812, 1.40534693, 1.40534693, 1.39642400, 1.23490890, 1.26491106
1.10679718, 1.35092561, 1.33229126, 1.36014705, 1.28452326, 1.25499004, 1.42302495, 1.20415946
1.26491106, 1.25499004, 1.33229126, 1.38744369, 1.39642400, 1.23490890, 1.40534693, 1.15108644
1.34164079, 1.28452326, 1.36014705, 1.29421791, 1.54919334, 1.43178211, 1.33229126, 1.15108644
1.31339255, 1.34164079, 1.34164079, 1.22474487, 1.38744369, 1.35092561, 1.49164339, 1.33229126
1.23490890, 1.20415946, 1.38744369, 1.33229126, 1.31339255, 1.35092561, 1.47478812, 1.40534693
1.25499004, 1.20415946, 1.46628783, 1.51657509, 1.36930639, 1.34164079, 1.29421791, 1.41421356
1.34164079, 1.20415946, 1.55724115, 1.46628783, 1.33229126, 1.31339255, 1.18321596, 1.39642400
1.31339255, 1.29421791, 1.41421356, 1.32287566, 1.23490890, 1.37840488, 1.30384048, 1.37840488
1.36014705, 1.35092561, 1.28452326, 1.42302495, 1.26491106, 1.19373364, 1.37840488, 1.32287566
1.38744369, 1.35092561, 1.48323970, 1.35092561, 1.51657509, 1.36930639, 1.37840488, 1.31339255
1.24498996, 1.41421356, 1.54110350, 1.21449578, 1.58113883, 1.52479507, 1.29421791, 1.45773797
1.21449578, 1.48323970, 1.37840488, 1.34164079, 1.47478812, 1.33229126, 1.39642400, 1.36930639
1.34164079, 1.37840488, 1.37840488, 1.47478812, 1.39642400, 1.22474487, 1.50831031, 1.10679718
1.25499004, 1.14017543, 1.42302495, 1.36930639, 1.36014705, 1.31339255, 1.42302495, 1.18321596
1.26491106, 1.20415946, 1.39642400, 1.28452326, 1.36930639, 1.33229126, 1.28452326, 1.41421356
1.37840488, 1.44913767, 1.27475488, 1.48323970, 1.37840488, 1.41421356, 1.24498996, 1.33229126
1.31339255, 1.36930639, 1.12915898, 1.45773797, 1.44048603, 1.50000000, 1.27475488, 1.21449578
1.31339255, 1.15108644, 1.43178211, 1.39642400, 1.38744369, 1.39642400, 1.23490890, 1.29421791
1.22474487, 1.29421791, 1.63554272, 1.36930639, 1.21449578, 1.17260394, 1.39642400, 1.32287566
1.32287566, 1.61245155, 1.50831031, 1.32287566, 1.32287566, 1.29421791, 1.44048603, 1.16189500
1.27475488, 1.68819430, 1.51657509, 1.40534693, 1.43178211, 1.46628783, 1.32287566, 1.25499004
1.26491106, 1.42302495, 1.48323970, 1.40534693, 1.44048603, 1.54919334, 1.37840488, 1.34164079
1.37840488, 1.23490890, 1.41421356, 1.15108644, 1.50000000, 1.58113883, 1.38744369, 1.15108644
1.26491106, 1.31339255, 1.34164079, 1.33229126, 1.42302495, 1.32287566, 1.30384048, 1.18321596
1.40534693, 1.42302495, 1.19373364, 1.50831031, 1.36930639, 1.26491106, 1.32287566, 1.39642400
1.50000000, 1.49164339, 1.36930639, 1.34164079, 1.33229126, 1.37840488, 1.29421791, 1.39642400
1.38744369, 1.46628783, 1.64316767, 1.29421791, 1.29421791, 1.36014705, 1.36930639, 1.19373364
1.27475488, 1.39642400, 1.45773797, 1.37840488, 1.47478812, 1.32287566, 1.35092561, 1.27475488
1.16189500, 1.44913767, 1.34164079, 1.34164079, 1.50831031, 1.22474487, 1.26491106, 1.41421356
1.20415946, 1.46628783, 1.49164339, 1.36014705, 1.42302495, 1.32287566, 1.31339255, 1.26491106
1.32287566, 1.35092561, 1.42302495, 1.42302495, 1.25499004, 1.37840488, 1.36014705, 1.31339255
1.31339255, 1.49164339, 1.36014705, 1.25499004, 1.21449578, 1.17260394, 1.30384048, 1.39642400
1.34164079, 1.46628783, 1.37840488, 1.29421791, 1.33229126, 1.26491106, 1.34164079, 1.33229126
1.45773797, 1.27475488, 1.54110350, 1.36930639, 1.28452326, 1.26491106, 1.42302495, 1.35092561
1.50000000, 1.29421791, 1.40534693, 1.41421356, 1.36930639, 1.28452326, 1.33229126, 1.23490890
1.30384048, 1.30384048, 1.20415946, 1.47478812, 1.59687194, 1.43178211, 1.28452326, 1.14017543
1.22474487, 1.48323970, 1.59687194, 1.40534693, 1.59687194, 1.28452326, 1.23490890, 1.42302495
1.27475488, 1.54110350, 1.65831240, 1.30384048, 1.41421356, 1.28452326, 1.32287566, 1.37840488
1.07238053, 1.49164339, 1.44913767, 1.33229126, 1.25499004, 1.31339255, 1.42302495, 1.10679718
1.06066017, 1.36930639, 1.36014705, 1.46628783, 1.28452326, 1.36930639, 1.26491106, 1.22474487
1.35092561, 1.29421791, 1.22474487, 1.44048603, 1.38744369, 1.35092561, 1.37840488, 1.25499004
1.53297097, 1.52479507, 1.25499004, 1.31339255, 1.42302495, 1.27475488, 1.40534693, 1.25499004
1.62018517, 1.46628783, 1.38744369, 1.47478812, 1.36930639, 1.39642400, 1.12915898, 1.31339255
1.53297097, 1.27475488, 1.37840488, 1.39642400, 1.34164079, 1.57321327, 1.27475488, 1.33229126
1.38744369, 1.31339255, 1.25499004, 1.31339255, 1.36014705, 1.45773797, 1.40534693, 1.29421791
1.41421356, 1.21449578, 1.42302495, 1.51657509, 1.43178211, 1.12915898, 1.39642400, 1.19373364
1.30384048, 1.39642400, 1.36014705, 1.47478812, 1.44913767, 1.22474487, 1.37840488, 1.14017543
1.32287566, 1.50831031, 1.24498996, 1.38744369, 1.46628783, 1.27475488, 1.37840488, 1.36930639
1.44048603, 1.37840488, 1.31339255, 1.30384048, 1.50831031, 1.38744369, 1.38744369, 1.39642400
1.29421791, 1.34164079, 1.29421791, 1.19373364, 1.36014705, 1.30384048, 1.36014705, 1.25499004
1.20415946, 1.37840488, 1.44048603, 1.19373364, 1.27475488, 1.15108644, 1.26491106, 1.24498996
1.18321596, 1.44913767, 1.54919334, 1.25499004, 1.35092561, 1.30384048, 1.36014705, 1.68077363
1.20415946, 1.38744369, 1.59687194, 1.25499004, 1.44913767, 1.22474487, 1.44048603, 1.80277564
1.34164079, 1.47478812, 1.51657509, 1.34164079, 1.42302495, 1.11803399, 1.31339255, 1.32287566
1.47478812, 1.37840488, 1.34164079, 1.36014705, 1.36014705, 1.33229126, 1.21449578, 1.19373364
1.36930639, 1.36930639, 1.21449578, 1.44048603, 1.40534693, 1.29421791, 1.28452326, 1.27475488
1.14017543, 1.50831031, 1.39642400, 1.39642400, 1.28452326, 1.25499004, 1.39642400, 1.34164079
1.24498996, 1.41421356, 1.45773797, 1.20415946, 1.28452326, 1.35092561, 1.32287566, 1.40534693
1.30384048, 1.46628783, 1.35092561, 1.30384048, 1.41421356, 1.23490890, 1.51657509, 1.46628783
1.16189500, 1.52479507, 1.34164079, 1.51657509, 1.39642400, 1.32287566, 1.48323970, 1.45773797
1.15108644, 1.37840488, 1.20415946, 1.51657509, 1.41421356, 1.35092561, 1.17260394, 1.47478812
1.33229126, 1.36930639, 1.23490890, 1.49164339, 1.32287566, 1.09544512, 1.19373364, 1.30384048
1.39642400, 1.41421356, 1.41421356, 1.35092561, 1.22474487, 1.21449578, 1.29421791, 1.16189500
1.40534693, 1.34164079, 1.50000000, 1.19373364, 1.44048603, 1.29421791, 1.27475488, 1.34164079
1.39642400, 1.36014705, 1.50000000, 1.24498996, 1.50000000, 1.36014705, 1.21449578, 1.28452326
1.25499004, 1.44048603, 1.36014705, 1.09544512, 1.41421356, 1.45773797, 1.31339255, 1.26491106
1.26491106, 1.53297097, 1.39642400, 1.07238053, 1.34164079, 1.33229126, 1.31339255, 1.36014705
1.23490890, 1.36014705, 1.50831031, 1.36930639, 1.28452326, 1.32287566, 1.35092561, 1.32287566
1.07238053, 1.22474487, 1.34164079, 1.52479507, 1.40534693, 1.24498996, 1.31339255, 1.36930639
1.22474487, 1.29421791, 1.27475488, 1.31339255, 1.38744369, 1.27475488, 1.18321596, 1.50000000
1.37840488, 1.31339255, 1.41421356, 1.10679718, 1.25499004, 1.65075740, 1.32287566, 1.52479507
1.28452326, 1.23490890, 1.38744369, 1.08397417, 1.24498996, 1.74642492, 1.48323970, 1.41421356
1.16189500, 1.25499004, 1.27475488, 1.17260394, 1.25499004, 1.53297097, 1.33229126, 1.35092561
1.11803399, 1.45773797, 1.39642400, 1.30384048, 1.32287566, 1.44048603, 1.26491106, 1.28452326
1.21449578, 1.43178211, 1.39642400, 1.29421791, 1.36014705, 1.38744369, 1.35092561, 1.15108644
1.22474487, 1.29421791, 1.30384048, 1.32287566, 1.26491106, 1.41421356, 1.26491106, 1.25499004
1.27475488, 1.17260394, 1.25499004, 1.29421791, 1.29421791, 1.36014705, 1.32287566, 1.38744369
1.42302495, 1.25499004, 1.23490890, 1.35092561, 1.37840488, 1.28452326, 1.44048603, 1.37840488
1.42302495, 1.35092561, 1.25499004, 1.34164079, 1.37840488, 1.25499004, 1.43178211, 1.32287566
1.44913767, 1.40534693, 1.43178211, 1.26491106, 1.40534693, 1.18321596, 1.29421791, 1.27475488
1.36014705, 1.44048603, 1.50000000, 1.44913767, 1.39642400, 1.19373364, 1.14017543, 1.32287566
1.40534693, 1.37840488, 1.28452326, 1.37840488, 1.32287566, 1.37840488, 1.29421791, 1.47478812
1.48323970, 1.27475488, 1.39642400, 1.36014705, 1.28452326, 1.48323970, 1.48323970, 1.35092561
1.38744369, 1.19373364, 1.49164339, 1.42302495, 1.27475488, 1.36930639, 1.27475488, 1.15108644
1.54110350, 1.33229126, 1.39642400, 1.36930639, 1.32287566, 1.32287566, 1.20415946, 1.29421791
1.40534693, 1.39642400, 1.50831031, 1.44048603, 1.36014705, 1.45773797, 1.44913767, 1.25499004
1.18321596, 1.37840488, 1.47478812, 1.34164079, 1.29421791, 1.40534693, 1.36930639, 1.30384048
1.33229126, 1.42302495, 1.31339255, 1.35092561, 1.29421791, 1.39642400, 1.26491106, 1.41421356
1.40534693, 1.39642400, 1.29421791, 1.43178211, 1.28452326, 1.65075740, 1.31339255, 1.28452326
1.45773797, 1.18321596, 1.44048603, 1.29421791, 1.40534693, 1.56524758, 1.22474487, 1.48323970
1.34164079, 1.34164079, 1.35092561, 1.30384048, 1.43178211, 1.35092561, 1.03682207, 1.53297097
1.31339255, 1.47478812, 1.30384048, 1.26491106, 1.31339255, 1.38744369, 1.12915898, 1.33229126
1.40534693, 1.36014705, 1.44913767, 1.24498996, 1.38744369, 1.41421356, 1.31339255, 1.39642400
1.36014705, 1.35092561, 1.35092561, 1.53297097, 1.56524758, 1.41421356, 1.20415946, 1.33229126
1.35092561, 1.38744369, 1.32287566, 1.50000000, 1.49164339, 1.36014705, 1.33229126, 1.32287566
1.33229126, 1.51657509, 1.31339255, 1.36930639, 1.31339255, 1.35092561, 1.48323970, 1.26491106
1.36930639, 1.41421356, 1.33229126, 1.36014705, 1.36014705, 1.27475488, 1.44913767, 1.19373364
1.34164079, 1.28452326, 1.39642400, 1.39642400, 1.43178211, 1.17260394, 1.34164079, 1.38744369
1.20415946, 1.32287566, 1.55724115, 1.46628783, 1.44048603, 1.29421791, 1.24498996, 1.25499004
1.30384048, 1.44913767, 1.59687194, 1.28452326, 1.34164079, 1.47478812, 1.28452326, 1.15108644
1.36930639, 1.48323970, 1.40534693, 1.23490890, 1.40534693, 1.43178211, 1.23490890, 1.36930639
1.36014705, 1.30384048, 1.27475488, 1.48323970, 1.52479507, 1.27475488, 1.38744369, 1.32287566
1.36014705, 1.33229126, 1.32287566, 1.44913767, 1.43178211, 1.36014705, 1.36930639, 1.34164079
1.29421791, 1.45773797, 1.52479507, 1.29421791, 1.45773797, 1.49164339, 1.28452326, 1.34164079
1.22474487, 1.42302495, 1.59687194, 1.36014705, 1.44048603, 1.40534693, 1.36014705, 1.44913767
1.26491106, 1.21449578, 1.48323970, 1.38744369, 1.30384048, 1.41421356, 1.30384048, 1.39642400
1.35092561, 1.35092561, 1.37840488, 1.51657509, 1.42302495, 1.36930639, 1.41421356, 1.10679718
1.37840488, 1.38744369, 1.49164339, 1.44913767, 1.42302495, 1.24498996, 1.40534693, 1.27475488
1.23490890, 1.30384048, 1.56524758, 1.18321596, 1.37840488, 1.37840488, 1.20415946, 1.41421356
1.20415946, 1.44048603, 1.37840488, 1.07238053, 1.36930639, 1.38744369, 1.14017543, 1.30384048
1.29421791, 1.56524758, 1.37840488, 1.24498996, 1.32287566, 1.28452326, 1.25499004, 1.32287566
1.29421791, 1.60468065, 1.46628783, 1.37840488, 1.47478812, 1.40534693, 1.43178211, 1.54110350
1.10679718, 1.50831031, 1.54110350, 1.31339255, 1.52479507, 1.27475488, 1.39642400, 1.46628783
1.24498996, 1.32287566, 1.40534693, 1.26491106, 1.54110350, 1.30384048, 1.30384048, 1.51657509
1.40534693, 1.31339255, 1.31339255, 1.33229126, 1.49164339, 1.41421356, 1.25499004, 1.39642400
1.24498996, 1.42302495, 1.44048603, 1.44048603, 1.44048603, 1.24498996, 1.45773797, 1.12915898
1.36014705, 1.31339255, 1.29421791, 1.38744369, 1.44913767, 1.38744369, 1.44048603, 1.36930639
1.54110350, 1.19373364, 1.26491106, 1.33229126, 1.40534693, 1.45773797, 1.35092561, 1.30384048
1.50000000, 1.37840488, 1.45773797, 1.27475488, 1.55724115, 1.44913767, 1.38744369, 1.20415946
1.24498996, 1.47478812, 1.55724115, 1.20415946, 1.41421356, 1.36930639, 1.41421356, 1.29421791
1.20415946, 1.36930639, 1.54110350, 1.33229126, 1.31339255, 1.30384048, 1.45773797, 1.24498996
1.39642400, 1.44048603, 1.50831031, 1.35092561, 1.53297097, 1.43178211, 1.32287566, 1.18321596
1.50831031, 1.35092561, 1.40534693, 1.44048603, 1.55724115, 1.70293864, 1.27475488, 1.29421791
1.44048603, 1.15108644, 1.29421791, 1.32287566, 1.42302495, 1.67332005, 1.35092561, 1.40534693
1.37840488, 1.22474487, 1.25499004, 1.33229126, 1.26491106, 1.35092561, 1.41421356, 1.28452326
1.24498996, 1.33229126, 1.38744369, 1.40534693, 1.27475488, 1.27475488, 1.22474487, 1.28452326
1.22474487, 1.45773797, 1.46628783, 1.20415946, 1.38744369, 1.32287566, 1.17260394, 1.20415946
1.28452326, 1.62018517, 1.39642400, 1.28452326, 1.34164079, 1.36014705, 1.29421791, 1.24498996
1.40534693, 1.71026314, 1.44048603, 1.40534693, 1.27475488, 1.38744369, 1.34164079, 1.29421791
1.39642400, 1.51657509, 1.38744369, 1.48323970, 1.30384048, 1.33229126, 1.29421791, 1.27475488
1.19373364, 1.32287566, 1.20415946, 1.58902486, 1.35092561, 1.36930639, 1.30384048, 1.37840488
1.32287566, 1.34164079, 1.33229126, 1.55724115, 1.22474487, 1.41421356, 1.30384048, 1.40534693
1.37840488, 1.35092561, 1.44913767, 1.42302495, 1.30384048, 1.23490890, 1.11803399, 1.40534693
1.32287566, 1.44048603, 1.35092561, 1.36014705, 1.49164339, 1.32287566, 1.14017543, 1.38744369
1.30384048, 1.49164339, 1.30384048, 1.27475488, 1.49164339, 1.53297097, 1.36014705, 1.30384048
1.43178211, 1.54919334, 1.46628783, 1.27475488, 1.41421356, 1.50000000, 1.52479507, 1.24498996
1.40534693, 1.35092561, 1.49164339, 1.35092561, 1.31339255, 1.53297097, 1.34164079, 1.36014705
1.25499004, 1.24498996, 1.36014705, 1.44048603, 1.33229126, 1.38744369, 1.20415946, 1.39642400
1.16189500, 1.33229126, 1.40534693, 1.37840488, 1.27475488, 1.17260394, 1.38744369, 1.36930639
1.16189500, 1.36930639, 1.39642400, 1.35092561, 1.33229126, 1.32287566, 1.39642400, 1.24498996
1.24498996, 1.42302495, 1.36930639, 1.42302495, 1.35092561, 1.41421356, 1.19373364, 1.31339255
1.17260394, 1.60468065, 1.39642400, 1.28452326, 1.23490890, 1.36014705, 1.19373364, 1.44913767
1.15108644, 1.65075740, 1.40534693, 1.38744369, 1.21449578, 1.25499004, 1.28452326, 1.40534693
1.24498996, 1.39642400, 1.34164079, 1.35092561, 1.27475488, 1.36014705, 1.36014705, 1.30384048
1.29421791, 1.39642400, 1.23490890, 1.25499004, 1.30384048, 1.42302495, 1.46628783, 1.32287566
1.25499004, 1.35092561, 1.25499004, 1.37840488, 1.48323970, 1.31339255, 1.45773797, 1.30384048
1.21449578, 1.34164079, 1.23490890, 1.29421791, 1.54919334, 1.35092561, 1.36930639, 1.30384048
1.37840488, 1.42302495, 1.27475488, 1.30384048, 1.31339255, 1.44048603, 1.17260394, 1.48323970
1.42302495, 1.26491106, 1.35092561, 1.40534693, 1.38744369, 1.37840488, 1.28452326, 1.44048603
1.29421791, 1.11803399, 1.40534693, 1.22474487, 1.38744369, 1.31339255, 1.38744369, 1.32287566
1.50000000, 1.24498996, 1.35092561, 1.15108644, 1.12915898, 1.37840488, 1.29421791, 1.36930639
1.44048603, 1.47478812, 1.35092561, 1.44048603, 1.41421356, 1.37840488, 1.28452326, 1.37840488
1.14017543, 1.51657509, 1.42302495, 1.36930639, 1.60468065, 1.28452326, 1.47478812, 1.39642400
1.04880885, 1.46628783, 1.36930639, 1.18321596, 1.44048603, 1.31339255, 1.49164339, 1.30384048
1.21449578, 1.45773797, 1.38744369, 1.33229126, 1.38744369, 1.34164079, 1.30384048, 1.27475488
1.45773797, 1.42302495, 1.44048603, 1.29421791, 1.42302495, 1.33229126, 1.43178211, 1.35092561
1.52479507, 1.33229126, 1.60468065, 1.18321596, 1.46628783, 1.45773797, 1.46628783, 1.37840488
1.46628783, 1.33229126, 1.51657509, 1.28452326, 1.29421791, 1.45773797, 1.32287566, 1.24498996
1.27475488, 1.44913767, 1.32287566, 1.27475488, 1.23490890, 1.40534693, 1.26491106, 1.26491106
1.21449578, 1.41421356, 1.43178211, 1.24498996, 1.40534693, 1.44048603, 1.24498996, 1.58902486
1.32287566, 1.26491106, 1.41421356, 1.21449578, 1.37840488, 1.50831031, 1.39642400, 1.52479507
1.35092561, 1.38744369, 1.36930639, 1.34164079, 1.33229126, 1.50000000, 1.35092561, 1.33229126
1.30384048, 1.36930639, 1.45773797, 1.31339255, 1.36930639, 1.52479507, 1.16189500, 1.24498996
1.28452326, 1.34164079, 1.44048603, 1.12915898, 1.27475488, 1.44913767, 1.22474487, 1.16189500
1.31339255, 1.56524758, 1.34164079, 1.12915898, 1.34164079, 1.29421791, 1.33229126, 1.18321596
1.48323970, 1.43178211, 1.34164079, 1.30384048, 1.40534693, 1.47478812, 1.42302495, 1.35092561
1.51657509, 1.29421791, 1.30384048, 1.38744369, 1.34164079, 1.53297097, 1.30384048, 1.34164079
1.32287566, 1.37840488, 1.27475488, 1.30384048, 1.30384048, 1.34164079, 1.19373364, 1.26491106
1.30384048, 1.28452326, 1.54110350, 1.25499004, 1.27475488, 1.12915898, 1.47478812, 1.53297097
1.34164079, 1.29421791, 1.54110350, 1.33229126, 1.33229126, 1.17260394, 1.56524758, 1.55724115
1.35092561, 1.32287566, 1.52479507, 1.44048603, 1.23490890, 1.32287566, 1.42302495, 1.31339255
1.35092561, 1.40534693, 1.50831031, 1.36930639, 1.35092561, 1.48323970, 1.35092561, 1.36930639
1.44913767, 1.36014705, 1.32287566, 1.29421791, 1.52479507, 1.53297097, 1.34164079, 1.35092561
1.30384048, 1.11803399, 1.50831031, 1.36014705, 1.54919334, 1.41421356, 1.29421791, 1.21449578
1.24498996, 1.23490890, 1.50000000, 1.30384048, 1.39642400, 1.49164339, 1.34164079, 1.16189500
1.42302495, 1.44048603, 1.39642400, 1.27475488, 1.36014705, 1.50831031, 1.28452326, 1.35092561
1.30384048, 1.62788206, 1.43178211, 1.50000000, 1.36014705, 1.24498996, 1.23490890, 1.50000000
1.23490890, 1.51657509, 1.44913767, 1.57321327, 1.36014705, 1.08397417, 1.31339255, 1.42302495
1.22474487, 1.49164339, 1.44913767, 1.40534693, 1.49164339, 1.24498996, 1.29421791, 1.54110350
1.27475488, 1.52479507, 1.42302495, 1.21449578, 1.38744369, 1.30384048, 1.22474487, 1.36014705
1.22474487, 1.31339255, 1.33229126, 1.20415946, 1.45773797, 1.35092561, 1.03682207, 1.27475488
1.08397417, 1.30384048, 1.25499004, 1.21449578, 1.38744369, 1.28452326, 1.28452326, 1.49164339
1.22474487, 1.42302495, 1.39642400, 1.31339255, 1.25499004, 1.24498996, 1.43178211, 1.47478812
1.30384048, 1.60468065, 1.43178211, 1.26491106, 1.51657509, 1.32287566, 1.30384048, 1.46628783
1.20415946, 1.46628783, 1.32287566, 1.18321596, 1.54110350, 1.37840488, 1.34164079, 1.39642400
1.18321596, 1.40534693, 1.29421791, 1.32287566, 1.46628783, 1.45773797, 1.26491106, 1.44913767
1.29421791, 1.39642400, 1.44048603, 1.43178211, 1.36930639, 1.30384048, 1.20415946, 1.36014705
1.48323970, 1.36014705, 1.43178211, 1.50000000, 1.23490890, 1.19373364, 1.33229126, 1.21449578
1.38744369, 1.51657509, 1.26491106, 1.35092561, 1.34164079, 1.38744369, 1.25499004, 1.42302495
1.16189500, 1.33229126, 1.36930639, 1.32287566, 1.51657509, 1.57321327, 1.29421791, 1.39642400
1.17260394, 1.30384048, 1.38744369, 1.40534693, 1.30384048, 1.46628783, 1.33229126, 1.28452326
1.25499004, 1.53297097, 1.16189500, 1.36014705, 1.35092561, 1.28452326, 1.31339255, 1.27475488
1.40534693, 1.53297097, 1.23490890, 1.58113883, 1.59687194, 1.35092561, 1.35092561, 1.25499004
1.59687194, 1.43178211, 1.46628783, 1.52479507, 1.42302495, 1.33229126, 1.31339255, 1.29421791
1.55724115, 1.41421356, 1.40534693, 1.32287566, 1.22474487, 1.26491106, 1.36014705, 1.50831031
1.24498996, 1.33229126, 1.28452326, 1.30384048, 1.08397417, 1.23490890, 1.38744369, 1.50000000
1.21449578, 1.32287566, 1.40534693, 1.17260394, 1.26491106, 1.28452326, 1.35092561, 1.22474487
1.22474487, 1.36014705, 1.43178211, 1.15108644, 1.49164339, 1.50831031, 1.22474487, 1.26491106
1.29421791, 1.49164339, 1.35092561, 1.22474487, 1.39642400, 1.40534693, 1.27475488, 1.40534693
1.32287566, 1.46628783, 1.44048603, 1.40534693, 1.25499004, 1.34164079, 1.32287566, 1.35092561
1.26491106, 1.32287566, 1.71755640, 1.36930639, 1.31339255, 1.43178211, 1.32287566, 1.35092561
1.39642400, 1.44913767, 1.62018517, 1.24498996, 1.42302495, 1.41421356, 1.36014705, 1.45773797
1.37840488, 1.47478812, 1.42302495, 1.20415946, 1.43178211, 1.40534693, 1.32287566, 1.37840488
1.24498996, 1.39642400, 1.44913767, 1.36014705, 1.47478812, 1.25499004, 1.27475488, 1.26491106
1.26491106, 1.30384048, 1.41421356, 1.39642400, 1.51657509, 1.53297097, 1.33229126, 1.23490890
1.33229126, 1.36930639, 1.41421356, 1.33229126, 1.36930639, 1.62018517, 1.24498996, 1.27475488
1.37840488, 1.46628783, 1.40534693, 1.43178211, 1.26491106, 1.40534693, 1.24498996, 1.49164339
1.41421356, 1.36930639, 1.38744369, 1.42302495, 1.28452326, 1.41421356, 1.47478812, 1.42302495
1.37840488, 1.28452326, 1.35092561, 1.49164339, 1.47478812, 1.31339255, 1.38744369, 1.15108644
1.25499004, 1.34164079, 1.33229126, 1.51657509, 1.50000000, 1.17260394, 1.06066017, 1.22474487
1.11803399, 1.22474487, 1.29421791, 1.38744369, 1.42302495, 1.19373364, 1.03682207, 1.39642400
1.15108644, 1.19373364, 1.47478812, 1.16189500, 1.22474487, 1.28452326, 1.17260394, 1.31339255
1.16189500, 1.43178211, 1.47478812, 1.14017543, 1.34164079, 1.44048603, 1.36930639, 1.34164079
1.25499004, 1.45773797, 1.41421356, 1.23490890, 1.46628783, 1.39642400, 1.44048603, 1.36014705
1.29421791, 1.26491106, 1.36930639, 1.19373364, 1.28452326, 1.31339255, 1.40534693, 1.35092561
1.27475488, 1.24498996, 1.38744369, 1.18321596, 1.39642400, 1.50000000, 1.43178211, 1.35092561
1.32287566, 1.37840488, 1.49164339, 1.19373364, 1.24498996, 1.47478812, 1.36930639, 1.15108644
1.30384048, 1.36930639, 1.50831031, 1.28452326, 1.25499004, 1.36014705, 1.38744369, 1.34164079
1.42302495, 1.43178211, 1.44913767, 1.41421356, 1.41421356, 1.51657509, 1.44913767, 1.41421356
1.51657509, 1.36014705, 1.31339255, 1.37840488, 1.36930639, 1.58113883, 1.41421356, 1.42302495
1.44913767, 1.26491106, 1.30384048, 1.28452326, 1.31339255, 1.39642400, 1.36930639, 1.41421356
1.35092561, 1.28452326, 1.21449578, 1.32287566, 1.53297097, 1.41421356, 1.29421791, 1.37840488
1.37840488, 1.58902486, 1.34164079, 1.49164339, 1.50831031, 1.55724115, 1.24498996, 1.37840488
1.55724115, 1.71026314, 1.44913767, 1.60468065, 1.34164079, 1.39642400, 1.24498996, 1.36014705
1.44913767, 1.44913767, 1.46628783, 1.40534693, 1.43178211, 1.31339255, 1.28452326, 1.44913767
1.27475488, 1.54110350, 1.36014705, 1.35092561, 1.44913767, 1.36014705, 1.24498996, 1.44048603
1.12915898, 1.49164339, 1.25499004, 1.38744369, 1.39642400, 1.22474487, 1.19373364, 1.42302495
0.97467943, 1.25499004, 1.47478812, 1.26491106, 1.32287566, 1.20415946, 1.20415946, 1.47478812
1.16189500, 1.26491106, 1.35092561, 1.20415946, 1.42302495, 1.31339255, 1.34164079, 1.48323970
1.38744369, 1.37840488, 1.35092561, 1.31339255, 1.42302495, 1.37840488, 1.35092561, 1.36014705
1.45773797, 1.34164079, 1.44048603, 1.37840488, 1.32287566, 1.35092561, 1.23490890, 1.23490890
1.41421356, 1.36930639, 1.35092561, 1.32287566, 1.20415946, 1.43178211, 1.47478812, 1.37840488
1.36014705, 1.33229126, 1.45773797, 1.41421356, 1.20415946, 1.54110350, 1.53297097, 1.35092561
1.22474487, 1.22474487, 1.50831031, 1.46628783, 1.22474487, 1.44048603, 1.32287566, 1.07238053
1.17260394, 1.54919334, 1.51657509, 1.31339255, 1.24498996, 1.46628783, 1.23490890, 1.23490890
1.29421791, 1.53297097, 1.47478812, 1.19373364, 1.42302495, 1.43178211, 1.37840488, 1.45773797
1.36930639, 1.39642400, 1.35092561, 1.36930639, 1.54110350, 1.35092561, 1.33229126, 1.39642400
1.44048603, 1.41421356, 1.28452326, 1.37840488, 1.49164339, 1.44048603, 1.42302495, 1.31339255
1.40534693, 1.36014705, 1.29421791, 1.33229126, 1.51657509, 1.33229126, 1.42302495, 1.35092561
1.44048603, 1.38744369, 1.29421791, 1.50831031, 1.42302495, 1.24498996, 1.15108644, 1.44048603
1.55724115, 1.37840488, 1.30384048, 1.40534693, 1.30384048, 1.47478812, 1.36014705, 1.34164079
1.50831031, 1.50831031, 1.25499004, 1.28452326, 1.29421791, 1.57321327, 1.39642400, 1.17260394
1.52479507, 1.58113883, 1.36014705, 1.36014705, 1.46628783, 1.36930639, 1.22474487, 1.23490890
1.46628783, 1.31339255, 1.40534693, 1.33229126, 1.46628783, 1.34164079, 1.22474487, 1.41421356
1.45773797, 1.46628783, 1.31339255, 1.48323970, 1.36014705, 1.41421356, 1.27475488, 1.42302495
1.48323970, 1.54919334, 1.42302495, 1.60468065, 1.50000000, 1.32287566, 1.32287566, 1.26491106
1.41421356, 1.34164079, 1.44048603, 1.37840488, 1.45773797, 1.39642400, 1.23490890, 1.15108644
1.27475488, 1.47478812, 1.32287566, 1.31339255, 1.44913767, 1.44913767, 1.23490890, 1.07238053
1.23490890, 1.44048603, 1.35092561, 1.49164339, 1.63554272, 1.36930639, 1.23490890, 1.12915898
1.23490890, 1.28452326, 1.38744369, 1.48323970, 1.52479507, 1.50831031, 1.27475488, 1.36014705
1.25499004, 1.28452326, 1.36014705, 1.38744369, 1.30384048, 1.43178211, 1.25499004, 1.35092561
1.30384048, 1.36014705, 1.35092561, 1.36930639, 1.39642400, 1.22474487, 1.07238053, 1.33229126
1.30384048, 1.55724115, 1.36930639, 1.29421791, 1.26491106, 1.36014705, 1.20415946, 1.52479507
1.30384048, 1.56524758, 1.42302495, 1.28452326, 1.26491106, 1.36014705, 1.24498996, 1.48323970
1.36014705, 1.28452326, 1.33229126, 1.28452326, 1.36014705, 1.20415946, 1.26491106, 1.36930639
1.59687194, 1.15108644, 1.25499004, 1.26491106, 1.36930639, 1.38744369, 1.28452326, 1.27475488
1.75356779, 1.15108644, 1.37840488, 1.40534693, 1.36014705, 1.67332005, 1.40534693, 1.22474487
1.55724115, 1.26491106, 1.35092561, 1.37840488, 1.38744369, 1.56524758, 1.36930639, 1.35092561
1.29421791, 1.38744369, 1.20415946, 1.19373364, 1.47478812, 1.36930639, 1.16189500, 1.34164079
1.36014705, 1.38744369, 1.30384048, 1.30384048, 1.52479507, 1.46628783, 1.32287566, 1.19373364
1.39642400, 1.38744369, 1.47478812, 1.44913767, 1.61245155, 1.43178211, 1.37840488, 1.19373364
1.29421791, 1.55724115, 1.55724115, 1.41421356, 1.50831031, 1.22474487, 1.36014705, 1.19373364
1.25499004, 1.52479507, 1.42302495, 1.43178211, 1.41421356, 1.14017543, 1.30384048, 1.19373364
1.35092561, 1.44913767, 1.23490890, 1.29421791, 1.44048603, 1.35092561, 1.34164079, 1.34164079
1.25499004, 1.43178211, 1.34164079, 1.33229126, 1.50831031, 1.53297097, 1.54919334, 1.46628783
1.06066017, 1.51657509, 1.42302495, 1.38744369, 1.44048603, 1.42302495, 1.46628783, 1.47478812
1.21449578, 1.42302495, 1.22474487, 1.34164079, 1.36014705, 1.38744369, 1.44913767, 1.26491106
1.36930639, 1.28452326, 1.30384048, 1.24498996, 1.34164079, 1.49164339, 1.63554272, 1.07238053
1.19373364, 1.52479507, 1.46628783, 1.18321596, 1.32287566, 1.42302495, 1.47478812, 1.33229126
1.35092561, 1.48323970, 1.34164079, 1.32287566, 1.40534693, 1.43178211, 1.35092561, 1.43178211
1.53297097, 1.38744369, 1.38744369, 1.24498996, 1.32287566, 1.41421356, 1.32287566, 1.38744369
1.51657509, 1.53297097, 1.44048603, 1.09544512, 1.36930639, 1.34164079, 1.18321596, 1.25499004
1.65075740, 1.68077363, 1.45773797, 1.37840488, 1.44913767, 1.41421356, 1.20415946, 1.08397417
1.47478812, 1.63554272, 1.40534693, 1.44048603, 1.43178211, 1.35092561, 1.28452326, 1.28452326
1.36014705, 1.34164079, 1.27475488, 1.15108644, 1.42302495, 1.18321596, 1.35092561, 1.36014705
1.30384048, 1.09544512, 1.37840488, 1.12915898, 1.31339255, 1.34164079, 1.41421356, 1.16189500
1.19373364, 1.19373364, 1.56524758, 1.32287566, 1.23490890, 1.47478812, 1.44048603, 1.30384048
1.35092561, 1.31339255, 1.41421356, 1.36930639, 1.26491106, 1.40534693, 1.31339255, 1.28452326
1.34164079, 1.43178211, 1.32287566, 1.12915898, 1.37840488, 1.45773797, 1.18321596, 1.19373364
1.34164079, 1.44048603, 1.43178211, 1.14017543, 1.38744369, 1.44048603, 1.26491106, 1.38744369
1.38744369, 1.37840488, 1.32287566, 1.33229126, 1.24498996, 1.25499004, 1.29421791, 1.46628783
1.30384048, 1.38744369, 1.44048603, 1.36930639, 1.12915898, 1.28452326, 1.40534693, 1.44048603
1.30384048, 1.46628783, 1.54110350, 1.27475488, 1.30384048, 1.44048603, 1.40534693, 1.28452326
1.34164079, 1.48323970, 1.44913767, 1.26491106, 1.41421356, 1.38744369, 1.27475488, 1.11803399
1.27475488, 1.38744369, 1.40534693, 1.34164079, 1.37840488, 1.23490890, 1.27475488, 1.21449578
1.35092561, 1.27475488, 1.37840488, 1.27475488, 1.36930639, 1.44913767, 1.21449578, 1.26491106
1.36930639, 1.26491106, 1.44048603, 1.32287566, 1.39642400, 1.67332005, 1.15108644, 1.21449578
1.39642400, 1.20415946, 1.47478812, 1.36014705, 1.33229126, 1.43178211, 1.21449578, 1.36014705
1.45773797, 1.26491106, 1.47478812, 1.34164079, 1.08397417, 1.16189500, 1.44913767, 1.58902486
1.35092561, 1.39642400, 1.36014705, 1.34164079, 1.25499004, 1.23490890, 1.34164079, 1.51657509
1.20415946, 1.36014705, 1.31339255, 1.18321596, 1.50831031, 1.26491106, 1.46628783, 1.18321596
1.30384048, 1.42302495, 1.41421356, 1.15108644, 1.57321327, 1.39642400, 1.50831031, 1.21449578
1.41421356, 1.43178211, 1.38744369, 1.22474487, 1.49164339, 1.34164079, 1.20415946, 1.24498996
1.30384048, 1.38744369, 1.29421791, 1.62788206, 1.37840488, 1.18321596, 1.33229126, 1.33229126
1.12915898, 1.33229126, 1.50000000, 1.72481883, 1.41421356, 1.50000000, 1.35092561, 1.46628783
1.10679718, 1.46628783, 1.64316767, 2.93683503, 1.71026314, 1.62018517, 1.26491106, 1.44913767
1.22474487, 1.51657509, 1.58113883, 3.21325380, 1.93002591, 1.43178211, 1.15108644, 1.48323970
1.15108644, 1.22474487, 1.45773797, 1.95576072, 1.63554272, 1.33229126, 1.32287566, 1.47478812
1.04880885, 1.12915898, 1.23490890, 1.35092561, 1.40534693, 1.28452326, 1.39642400, 1.32287566
1.30384048, 1.33229126, 1.31339255, 1.28452326, 1.46628783, 1.31339255, 1.25499004, 1.23490890
1.41421356, 1.34164079, 1.52479507, 1.46628783, 1.47478812, 1.26491106, 1.32287566, 1.32287566
1.36930639, 1.39642400, 1.50831031, 1.36014705, 1.42302495, 1.35092561, 1.33229126, 1.38744369
1.35092561, 1.44048603, 1.34164079, 1.33229126, 1.43178211, 1.38744369, 1.41421356, 1.37840488
1.34164079, 1.41421356, 1.24498996, 1.49164339, 1.46628783, 1.27475488, 1.36014705, 1.23490890
1.35092561, 1.39642400, 1.36014705, 1.37840488, 1.54919334, 1.33229126, 1.19373364, 1.08397417
1.35092561, 1.25499004, 1.38744369, 1.33229126, 1.71755640, 1.28452326, 1.21449578, 1.19373364
1.44048603, 1.26491106, 1.34164079, 1.25499004, 1.50831031, 1.24498996, 1.35092561, 1.34164079
1.51657509, 1.36014705, 1.44913767, 1.46628783, 1.31339255, 1.23490890, 1.45773797, 1.34164079
1.43178211, 1.44913767, 1.45773797, 1.50000000, 1.33229126, 1.37840488, 1.39642400, 1.27475488
1.20415946, 1.55724115, 1.46628783, 1.36014705, 1.23490890, 1.36930639, 1.24498996, 1.42302495
1.36014705, 1.50831031, 1.44913767, 1.44048603, 1.27475488, 1.36014705, 1.16189500, 1.49164339
1.41421356, 1.38744369, 1.40534693, 1.41421356, 1.35092561, 1.45773797, 1.19373364, 1.44048603
1.30384048, 1.32287566, 1.34164079, 1.36930639, 1.31339255, 1.38744369, 1.12915898, 1.49164339
1.35092561, 1.41421356, 1.30384048, 1.34164079, 1.45773797, 1.47478812, 1.17260394, 1.36930639
1.32287566, 1.50000000, 1.40534693, 1.34164079, 1.53297097, 1.44048603, 1.20415946, 1.28452326
1.23490890, 1.52479507, 1.41421356, 1.52479507, 1.43178211, 1.24498996, 1.32287566, 1.35092561
1.19373364, 1.46628783, 1.39642400, 1.49164339, 1.36930639, 1.26491106, 1.40534693, 1.36930639
1.24498996, 1.42302495, 1.32287566, 1.39642400, 1.30384048, 1.44913767, 1.25499004, 1.48323970
1.33229126, 1.50831031, 1.32287566, 1.49164339, 1.44913767, 1.31339255, 1.18321596, 1.54919334
1.53297097, 1.31339255, 1.44048603, 1.50000000, 1.46628783, 1.20415946, 1.19373364, 1.45773797
1.52479507, 1.30384048, 1.51657509, 1.37840488, 1.50000000, 1.32287566, 1.23490890, 1.24498996
1.31339255, 1.48323970, 1.47478812, 1.24498996, 1.62788206, 1.44913767, 1.29421791, 1.23490890
1.24498996, 1.39642400, 1.39642400, 1.36014705, 1.47478812, 1.50831031, 1.23490890, 1.25499004
1.34164079, 1.31339255, 1.37840488, 1.43178211, 1.49164339, 1.50831031, 1.35092561, 1.23490890
1.23490890, 1.39642400, 1.22474487, 1.41421356, 1.50000000, 1.51657509, 1.47478812, 1.23490890
1.11803399, 1.42302495, 1.32287566, 1.45773797, 1.45773797, 1.51657509, 1.48323970, 2.42383993
1.45773797, 1.30384048, 1.43178211, 1.47478812, 1.50000000, 1.55724115, 1.47478812, 2.56417628
1.44913767, 1.47478812, 1.33229126, 1.49164339, 1.38744369, 1.27475488, 1.41421356, 1.50831031
1.24498996, 1.57321327, 1.26491106, 1.41421356, 1.37840488, 1.34164079, 1.47478812, 1.36014705
1.21449578, 1.30384048, 1.17260394, 1.32287566, 1.34164079, 1.43178211, 1.51657509, 1.35092561
1.19373364, 1.31339255, 1.36930639, 1.34164079, 1.27475488, 1.31339255, 1.38744369, 1.26491106
1.22474487, 1.36014705, 1.46628783, 1.34164079, 1.54110350, 1.31339255, 1.22474487, 1.20415946
1.27475488, 1.45773797, 1.46628783, 1.35092561, 1.56524758, 1.47478812, 1.20415946, 1.35092561
1.23490890, 1.62018517, 1.53297097, 1.30384048, 1.35092561, 1.55724115, 1.18321596, 1.33229126
1.09544512, 1.47478812, 1.31339255, 1.45773797, 1.43178211, 1.36930639, 1.28452326, 1.28452326
1.20415946, 1.46628783, 1.26491106, 1.41421356, 1.40534693, 1.34164079, 1.36014705, 1.34164079
1.29421791, 1.61245155, 1.31339255, 1.32287566, 1.33229126, 1.31339255, 1.38744369, 1.59687194
1.33229126, 1.60468065, 1.23490890, 1.32287566, 1.27475488, 1.24498996, 1.40534693, 1.60468065
1.40534693, 1.41421356, 1.22474487, 1.15108644, 1.16189500, 1.24498996, 1.42302495, 1.24498996
1.26491106, 1.34164079, 1.30384048, 1.36014705, 1.31339255, 1.36014705, 1.33229126, 1.20415946
1.31339255, 1.32287566, 1.35092561, 1.36930639, 1.25499004, 1.28452326, 1.30384048, 1.14017543
1.42302495, 1.31339255, 1.32287566, 1.24498996, 1.31339255, 1.25499004, 1.37840488, 1.32287566
1.27475488, 1.27475488, 1.38744369, 1.36930639, 1.39642400, 1.51657509, 1.33229126, 1.44913767
1.22474487, 1.26491106, 1.48323970, 1.32287566, 1.35092561, 1.47478812, 1.27475488, 1.26491106
1.22474487, 1.43178211, 1.33229126, 1.27475488, 1.41421356, 1.30384048, 1.32287566, 1.26491106
1.32287566, 1.44913767, 1.19373364, 1.30384048, 1.27475488, 1.26491106, 1.31339255, 1.36014705
1.35092561, 1.33229126, 1.23490890, 1.49164339, 1.28452326, 1.23490890, 1.20415946, 1.43178211
1.23490890, 1.38744369, 1.40534693, 1.47478812, 1.43178211, 1.44048603, 1.38744369, 1.40534693
1.20415946, 1.41421356, 1.52479507, 1.22474487, 1.40534693, 1.39642400, 1.44048603, 1.28452326
1.41421356, 1.42302495, 1.36014705, 1.26491106, 1.18321596, 1.19373364, 1.25499004, 1.30384048
1.49164339, 1.47478812, 1.20415946, 1.21449578, 1.24498996, 1.44913767, 1.29421791, 1.44913767
1.41421356, 1.37840488, 1.35092561, 1.07238053, 1.43178211, 1.45773797, 1.45773797, 1.41421356
1.53297097, 1.29421791, 1.55724115, 1.21449578, 1.41421356, 1.23490890, 1.40534693, 1.26491106
1.49164339, 1.30384048, 1.58113883, 1.44048603, 1.36930639, 1.36930639, 1.25499004, 1.25499004
1.38744369, 1.28452326, 1.43178211, 1.44913767, 1.32287566, 1.44048603, 1.33229126, 1.35092561
1.50000000, 1.26491106, 1.40534693, 1.37840488, 1.25499004, 1.56524758, 1.38744369, 1.29421791
1.44913767, 1.21449578, 1.38744369, 1.20415946, 1.27475488, 1.48323970, 1.35092561, 1.25499004
1.21449578, 1.29421791, 1.31339255, 1.24498996, 1.42302495, 1.26491106, 1.22474487, 1.43178211
1.42302495, 1.56524758, 1.36014705, 1.45773797, 1.50831031, 1.39642400, 1.23490890, 1.45773797
1.57321327, 1.50831031, 1.36014705, 1.31339255, 1.37840488, 1.35092561, 1.39642400, 1.36014705
1.28452326, 1.25499004, 1.30384048, 1.35092561, 1.21449578, 1.36014705, 1.23490890, 1.11803399
1.21449578, 1.30384048, 1.32287566, 1.33229126, 1.29421791, 1.32287566, 1.27475488, 1.23490890
1.24498996, 1.33229126, 1.41421356, 1.25499004, 1.33229126, 1.19373364, 1.36930639, 1.39642400
1.24498996, 1.27475488, 1.36014705, 1.31339255, 1.21449578, 1.26491106, 1.29421791, 1.28452326
1.36930639, 1.31339255, 1.45773797, 1.31339255, 1.29421791, 1.26491106, 1.23490890, 1.26491106
1.49164339, 1.25499004, 1.43178211, 1.37840488, 1.25499004, 1.22474487, 1.18321596, 1.17260394
1.50000000, 1.33229126, 1.44913767, 1.36930639, 1.30384048, 1.45773797, 1.29421791, 1.28452326
1.42302495, 1.36930639, 1.57321327, 1.25499004, 1.49164339, 1.47478812, 1.27475488, 1.41421356
1.31339255, 1.58902486, 1.47478812, 1.31339255, 1.43178211, 1.37840488, 1.36014705, 1.23490890
1.25499004, 1.65075740, 1.41421356, 1.50000000, 1.30384048, 1.57321327, 1.30384048, 1.31339255
1.30384048, 1.34164079, 1.36930639, 1.45773797, 1.41421356, 1.43178211, 1.28452326, 1.29421791
1.53297097, 1.28452326, 1.44048603, 1.24498996, 1.54919334, 1.17260394, 1.36014705, 1.25499004
1.50000000, 1.37840488, 1.50831031, 1.23490890, 1.40534693, 1.19373364, 1.25499004, 1.38744369
1.24498996, 1.42302495, 1.36930639, 1.22474487, 1.23490890, 1.29421791, 1.24498996, 1.24498996
1.18321596, 1.44048603, 1.24498996, 1.07238053, 1.26491106, 1.34164079, 1.20415946, 1.34164079
1.16189500, 1.34164079, 1.36014705, 1.07238053, 1.27475488, 1.28452326, 1.27475488, 1.46628783
1.33229126, 1.35092561, 1.43178211, 1.32287566, 1.36930639, 1.18321596, 1.27475488, 1.36014705
1.34164079, 1.42302495, 1.46628783, 1.30384048, 1.48323970, 1.36014705, 1.15108644, 1.36930639
1.29421791, 1.31339255, 1.46628783, 1.15108644, 1.27475488, 1.43178211, 1.10679718, 1.29421791
1.40534693, 1.26491106, 1.32287566, 1.32287566, 1.41421356, 1.32287566, 1.26491106, 1.18321596
1.27475488, 1.35092561, 1.49164339, 1.33229126, 1.45773797, 1.40534693, 1.21449578, 1.37840488
1.02469508, 1.43178211, 1.61245155, 1.28452326, 1.36930639, 1.49164339, 1.02469508, 1.41421356
1.26491106, 1.31339255, 1.42302495, 1.35092561, 1.43178211, 1.39642400, 1.22474487, 1.36930639
1.60468065, 1.28452326, 1.29421791, 1.28452326, 1.50000000, 1.33229126, 1.28452326, 1.36930639
1.42302495, 1.35092561, 1.29421791, 1.36930639, 1.54919334, 1.41421356, 1.24498996, 1.29421791
1.27475488, 1.31339255, 1.30384048, 1.59687194, 1.37840488, 1.35092561, 1.22474487, 1.28452326
1.50831031, 1.34164079, 1.42302495, 1.55724115, 1.19373364, 1.26491106, 1.21449578, 1.18321596
1.43178211, 1.50831031, 1.45773797, 1.36930639, 1.18321596, 1.25499004, 1.24498996, 1.14017543
1.27475488, 1.59687194, 1.36930639, 1.24498996, 1.25499004, 1.42302495, 1.36014705, 1.49164339
1.36930639, 1.40534693, 1.29421791, 1.21449578, 1.31339255, 1.52479507, 1.36930639, 1.53297097
1.47478812, 1.33229126, 1.22474487, 1.20415946, 1.32287566, 1.48323970, 1.35092561, 1.54919334
1.35092561, 1.48323970, 1.31339255, 1.21449578, 1.30384048, 1.42302495, 1.31339255, 1.50831031
1.18321596, 1.33229126, 1.46628783, 1.25499004, 1.30384048, 1.33229126, 1.20415946, 1.22474487
1.36014705, 1.39642400, 1.42302495, 1.20415946, 1.25499004, 1.42302495, 1.12915898, 1.33229126
1.42302495, 1.71755640, 1.25499004, 1.09544512, 1.36014705, 1.49164339, 1.14017543, 1.34164079
1.24498996, 1.68819430, 1.38744369, 1.16189500, 1.42302495, 1.37840488, 1.39642400, 1.16189500
1.29421791, 1.37840488, 1.41421356, 1.39642400, 1.24498996, 1.32287566, 1.47478812, 1.17260394
1.48323970, 1.31339255, 1.44913767, 1.39642400, 1.26491106, 1.33229126, 1.41421356, 1.34164079
1.48323970, 1.32287566, 1.50831031, 1.31339255, 1.65831240, 1.36930639, 1.26491106, 1.35092561
1.26491106, 1.32287566, 1.31339255, 1.36014705, 1.67332005, 1.28452326, 1.24498996, 1.35092561
1.31339255, 1.36014705, 1.31339255, 1.36930639, 1.35092561, 1.16189500, 1.44048603, 1.38744369
1.38744369, 1.29421791, 1.42302495, 1.33229126, 1.34164079, 1.26491106, 1.47478812, 1.43178211
1.28452326, 1.36014705, 1.31339255, 1.29421791, 1.49164339, 1.37840488, 1.44048603, 1.38744369
1.50831031, 1.37840488, 1.20415946, 1.24498996, 1.40534693, 6.76017751, 1.63554272, 1.28452326
1.56524758, 1.32287566, 1.33229126, 1.22474487, 1.55724115, 8.31865374, 2.02484567, 1.36014705
1.44913767, 1.25499004, 1.54110350, 1.44913767, 1.85067555, 10.72380529, 2.50499501, 1.49164339
1.43178211, 1.50831031, 1.61245155, 1.53297097, 1.79582850, 10.70397123, 2.25277607, 1.54919334
1.31339255, 1.55724115, 1.44913767, 1.36014705, 1.62018517, 6.04359165, 1.68077363, 1.28452326
1.32287566, 1.50000000, 1.32287566, 1.24498996, 1.45773797, 8.48822714, 1.90394328, 1.27475488
1.27475488, 1.42302495, 1.40534693, 1.38744369, 1.35092561, 8.23862853, 1.66583312, 1.38744369
1.16189500, 1.38744369, 1.32287566, 1.42302495, 1.33229126, 5.07937004, 1.50831031, 1.18321596
1.24498996, 1.42302495, 1.30384048, 1.29421791, 1.42302495, 8.18382551, 1.62788206, 1.30384048
1.10679718, 1.33229126, 1.27475488, 1.18321596, 1.40534693, 8.37108117, 1.62018517, 1.28452326
1.39642400, 1.26491106, 1.26491106, 1.17260394, 1.30384048, 4.89131884, 1.50000000, 1.20415946
1.64316767, 1.42302495, 1.42302495, 1.26491106, 1.21449578, 2.42899156, 1.28452326, 1.21449578
1.38744369, 1.49164339, 1.45773797, 1.36014705, 1.27475488, 1.88414437, 1.38744369, 1.29421791
1.26491106, 1.36014705, 1.28452326, 1.27475488, 1.37840488, 1.46628783, 1.33229126, 1.44048603
1.22474487, 1.36930639, 1.23490890, 1.19373364, 1.33229126, 1.40534693, 1.27475488, 1.28452326
1.30384048, 1.31339255, 1.50831031, 1.47478812, 1.35092561, 1.39642400, 1.26491106, 1.20415946
1.16189500, 1.30384048, 1.45773797, 1.38744369, 1.28452326, 1.50000000, 1.36014705, 1.23490890
0.89442719, 1.44048603, 1.24498996, 1.12915898, 1.31339255, 1.34164079, 1.40534693, 1.36014705
1.36930639, 1.41421356, 1.43178211, 1.27475488, 1.36930639, 1.36014705, 1.21449578, 1.41421356
1.51657509, 1.26491106, 1.59687194, 1.43178211, 1.41421356, 1.62788206, 1.15108644, 1.15108644
1.29421791, 1.43178211, 1.44048603, 1.27475488, 1.41421356, 1.49164339, 1.29421791, 1.10679718
1.44048603, 1.49164339, 1.43178211, 1.24498996, 1.44048603, 1.21449578, 1.28452326, 1.44913767
1.40534693, 1.36014705, 1.26491106, 1.29421791, 1.42302495, 1.31339255, 1.27475488, 1.39642400
1.38744369, 1.35092561, 1.31339255, 1.29421791, 1.49164339, 1.36014705, 1.26491106, 1.25499004
1.32287566, 1.41421356, 1.51657509, 1.48323970, 1.33229126, 1.31339255, 1.20415946, 1.33229126
1.12915898, 1.54919334, 1.40534693, 1.45773797, 1.25499004, 1.45773797, 1.24498996, 1.31339255
1.10679718, 1.44913767, 1.41421356, 1.47478812, 1.46628783, 1.46628783, 1.27475488, 1.37840488
1.16189500, 1.30384048, 1.50000000, 1.36930639, 1.41421356, 1.18321596, 1.15108644, 1.54110350
1.26491106, 1.44913767, 1.40534693, 1.15108644, 1.35092561, 1.22474487, 1.25499004, 1.44048603
1.35092561, 1.60468065, 1.19373364, 1.37840488, 1.30384048, 1.26491106, 1.43178211, 1.27475488
1.35092561, 1.71026314, 1.36930639, 1.43178211, 1.45773797, 1.19373364, 1.28452326, 1.44048603
1.15108644, 1.47478812, 1.46628783, 1.12915898, 1.35092561, 1.36930639, 1.32287566, 1.42302495
1.16189500, 1.43178211, 1.29421791, 1.28452326, 1.31339255, 1.44913767, 1.41421356, 1.19373364
1.24498996, 1.49164339, 1.28452326, 1.45773797, 1.38744369, 1.33229126, 1.40534693, 1.24498996
1.18321596, 1.26491106, 1.37840488, 1.39642400, 1.47478812, 1.29421791, 1.39642400, 1.43178211
1.16189500, 1.29421791, 1.36930639, 1.36930639, 1.71755640, 1.27475488, 1.34164079, 1.27475488
1.22474487, 1.37840488, 1.20415946, 1.24498996, 1.71026314, 1.27475488, 1.42302495, 1.18321596
1.43178211, 1.38744369, 1.27475488, 1.32287566, 1.55724115, 1.35092561, 1.41421356, 1.34164079
1.54919334, 1.36930639, 1.50831031, 1.42302495, 1.44048603, 1.35092561, 1.24498996, 1.27475488
1.40534693, 1.34164079, 1.35092561, 1.58902486, 1.34164079, 1.33229126, 1.10679718, 1.10679718
1.41421356, 1.28452326, 1.30384048, 1.66583312, 1.40534693, 1.36930639, 1.18321596, 1.31339255
1.44048603, 1.12915898, 1.40534693, 1.32287566, 1.47478812, 1.56524758, 1.25499004, 1.44913767
1.37840488, 1.23490890, 1.56524758, 1.10679718, 1.36930639, 1.43178211, 1.30384048, 1.33229126
1.25499004, 1.37840488, 1.53297097, 1.24498996, 1.40534693, 1.16189500, 1.36930639, 1.31339255
1.21449578, 1.29421791, 1.17260394, 1.22474487, 1.43178211, 1.22474487, 1.32287566, 1.32287566
1.44913767, 1.20415946, 1.16189500, 1.29421791, 1.43178211, 1.30384048, 1.33229126, 1.40534693
1.50000000, 1.26491106, 1.31339255, 1.48323970, 1.35092561, 1.31339255, 1.43178211, 1.40534693
1.44913767, 1.44048603, 1.38744369, 1.48323970, 1.30384048, 1.24498996, 1.42302495, 1.33229126
1.51657509, 1.33229126, 1.31339255, 1.37840488, 1.44048603, 1.30384048, 1.33229126, 1.42302495
1.49164339, 1.18321596, 1.24498996, 1.36014705, 1.35092561, 1.44913767, 1.33229126, 1.42302495
1.39642400, 1.35092561, 1.38744369, 1.39642400, 1.33229126, 1.37840488, 1.47478812, 1.39642400
1.26491106, 1.31339255, 1.50000000, 1.36930639, 1.36930639, 1.40534693, 1.45773797, 1.34164079
1.26491106, 1.09544512, 1.41421356, 1.40534693, 1.42302495, 1.42302495, 1.16189500, 1.14017543
1.33229126, 1.36014705, 1.53297097, 1.45773797, 1.50000000, 1.36930639, 1.31339255, 0.94868330
1.29421791, 1.53297097, 1.54110350, 1.35092561, 1.42302495, 1.42302495, 1.53297097, 1.27475488
1.34164079, 1.41421356, 1.25499004, 1.31339255, 1.49164339, 1.40534693, 1.36930639, 1.38744369
1.33229126, 1.39642400, 1.21449578, 1.30384048, 1.47478812, 1.25499004, 1.26491106, 1.18321596
1.27475488, 1.34164079, 1.25499004, 1.29421791, 1.32287566, 1.04880885, 1.33229126, 1.31339255
1.29421791, 1.36014705, 1.42302495, 1.43178211, 1.39642400, 1.16189500, 1.32287566, 1.38744369
1.22474487, 1.47478812, 1.38744369, 1.31339255, 1.50000000, 1.41421356, 1.39642400, 1.35092561
1.26491106, 1.42302495, 1.30384048, 1.26491106, 1.36930639, 1.39642400, 1.36930639, 1.15108644
1.45773797, 1.27475488, 1.40534693, 1.36930639, 1.31339255, 1.15108644, 1.35092561, 1.32287566
1.37840488, 1.32287566, 1.54919334, 1.42302495, 1.54110350, 1.15108644, 1.43178211, 1.56524758
1.29421791, 1.46628783, 1.58902486, 1.38744369, 1.50000000, 1.30384048, 1.26491106, 1.40534693
1.25499004, 1.40534693, 1.47478812, 1.21449578, 1.32287566, 1.53297097, 1.36014705, 1.24498996
1.18321596, 1.40534693, 1.37840488, 1.28452326, 1.53297097, 1.51657509, 1.39642400, 1.36014705
1.26491106, 1.33229126, 1.18321596, 1.36014705, 1.55724115, 1.39642400, 1.28452326, 1.36014705
1.28452326, 1.38744369, 1.30384048, 1.18321596, 1.36014705, 1.33229126, 1.54110350, 1.15108644
1.45773797, 1.54919334, 1.55724115, 1.09544512, 1.34164079, 1.47478812, 1.50000000, 1.33229126
1.40534693, 1.32287566, 1.41421356, 1.21449578, 1.45773797, 1.47478812, 1.26491106, 1.31339255
1.28452326, 1.25499004, 1.30384048, 1.31339255, 1.59687194, 1.34164079, 1.35092561, 1.15108644
1.31339255, 1.40534693, 1.45773797, 1.20415946, 1.38744369, 1.38744369, 1.28452326, 1.35092561
1.10679718, 1.43178211, 1.44913767, 1.29421791, 1.24498996, 1.41421356, 1.21449578, 1.36014705
1.14017543, 1.33229126, 1.42302495, 1.39642400, 1.54919334, 1.36930639, 1.17260394, 1.43178211
1.32287566, 1.29421791, 1.41421356, 1.24498996, 1.42302495, 1.36014705, 1.20415946, 1.47478812
1.39642400, 1.24498996, 1.27475488, 1.52479507, 1.32287566, 1.38744369, 1.44048603, 1.24498996
1.45773797, 1.09544512, 1.29421791, 1.52479507, 1.56524758, 1.28452326, 1.44913767, 1.33229126
1.33229126, 1.22474487, 1.36930639, 1.32287566, 1.51657509, 1.30384048, 1.38744369, 1.22474487
1.26491106, 1.38744369, 1.25499004, 1.47478812, 1.31339255, 1.41421356, 1.31339255, 1.15108644
1.36014705, 1.31339255, 1.30384048, 1.40534693, 1.33229126, 1.50000000, 1.18321596, 1.39642400
1.33229126, 1.14017543, 1.29421791, 1.44913767, 1.30384048, 1.58113883, 1.19373364, 1.50831031
1.30384048, 1.27475488, 1.34164079, 1.48323970, 1.23490890, 1.51657509, 1.43178211, 1.58113883
1.23490890, 1.37840488, 1.54110350, 1.26491106, 1.36014705, 1.46628783, 1.41421356, 1.36930639
1.44048603, 1.45773797, 1.36014705, 1.22474487, 1.36014705, 1.36014705, 1.36930639, 1.14017543
1.46628783, 1.51657509, 1.15108644, 1.07238053, 1.49164339, 1.18321596, 1.39642400, 1.01242284
1.17260394, 1.54919334, 1.16189500, 1.10679718, 1.47478812, 1.40534693, 1.33229126, 1.03682207
1.24498996, 1.46628783, 1.43178211, 1.30384048, 1.45773797, 1.58113883, 1.32287566, 1.35092561
1.39642400, 1.36930639, 1.59687194, 1.31339255, 1.36930639, 1.50831031, 1.29421791, 1.50000000
1.29421791, 1.38744369, 1.28452326, 1.35092561, 1.16189500, 1.26491106, 1.25499004, 1.41421356
1.55724115, 1.36014705, 1.22474487, 1.49164339, 1.32287566, 1.29421791, 1.29421791, 1.43178211
1.61245155, 1.59687194, 1.35092561, 1.50000000, 1.57321327, 1.53297097, 1.39642400, 1.56524758
1.26491106, 1.48323970, 1.34164079, 1.37840488, 1.58902486, 1.46628783, 1.24498996, 1.44048603
1.34164079, 1.51657509, 1.36014705, 1.37840488, 1.35092561, 1.19373364, 1.25499004, 1.36014705
1.41421356, 1.48323970, 1.39642400, 1.42302495, 1.30384048, 1.35092561, 1.23490890, 1.36014705
1.19373364, 1.27475488, 1.34164079, 1.32287566, 1.44913767, 1.52479507, 1.26491106, 1.29421791
1.28452326, 1.29421791, 1.30384048, 1.18321596, 1.60468065, 1.36930639, 1.47478812, 1.30384048
1.52479507, 1.25499004, 1.43178211, 1.30384048, 1.48323970, 1.08397417, 1.21449578, 1.20415946
1.50000000, 1.36930639, 1.41421356, 1.49164339, 1.37840488, 1.23490890, 1.14017543, 1.18321596
1.46628783, 1.43178211, 1.45773797, 1.44913767, 1.50831031, 1.45773797, 1.24498996, 1.30384048
1.41421356, 1.42302495, 1.46628783, 1.36930639, 1.49164339, 1.54110350, 1.06066017, 1.37840488
1.33229126, 1.41421356, 1.44913767, 1.31339255, 1.48323970, 1.49164339, 1.24498996, 1.36930639
1.33229126, 1.25499004, 1.44048603, 1.20415946, 1.41421356, 1.26491106, 1.38744369, 1.44913767
1.37840488, 1.21449578, 1.44913767, 1.27475488, 1.26491106, 1.23490890, 1.38744369, 1.40534693
1.36014705, 1.23490890, 1.39642400, 1.34164079, 1.42302495, 1.24498996, 1.40534693, 1.24498996
1.38744369, 1.20415946, 1.26491106, 1.28452326, 1.50831031, 1.18321596, 1.25499004, 1.20415946
1.36014705, 1.37840488, 1.30384048, 1.34164079, 1.50831031, 1.18321596, 1.23490890, 1.15108644
1.33229126, 1.46628783, 1.30384048, 1.28452326, 1.48323970, 1.15108644, 1.23490890, 1.20415946
1.28452326, 1.48323970, 1.43178211, 1.24498996, 1.57321327, 1.22474487, 1.20415946, 1.30384048
1.25499004, 1.32287566, 1.36014705, 1.38744369, 1.44913767, 1.36014705, 1.24498996, 1.28452326
1.40534693, 1.33229126, 1.28452326, 1.28452326, 1.21449578, 1.32287566, 1.15108644, 1.32287566
1.41421356, 1.38744369, 1.51657509, 1.37840488, 1.36930639, 1.27475488, 1.21449578, 1.44913767
1.68077363, 1.37840488, 1.47478812, 1.25499004, 1.28452326, 1.16189500, 1.22474487, 1.25499004
1.66583312, 1.37840488, 1.40534693, 1.20415946, 1.44913767, 1.16189500, 1.19373364, 1.21449578
1.31339255, 1.31339255, 1.35092561, 1.36930639, 1.55724115, 1.39642400, 1.29421791, 1.52479507
1.39642400, 1.35092561, 1.39642400, 1.38744369, 1.38744369, 1.45773797, 1.24498996, 1.30384048
1.34164079, 1.36930639, 1.50831031, 1.49164339, 1.21449578, 1.25499004, 1.20415946, 1.17260394
1.35092561, 1.46628783, 1.29421791, 1.30384048, 1.47478812, 1.15108644, 1.35092561, 1.23490890
1.48323970, 1.59687194, 1.33229126, 1.33229126, 1.60468065, 1.32287566, 1.30384048, 1.01242284
1.29421791, 1.36930639, 1.40534693, 1.38744369, 1.42302495, 1.43178211, 1.24498996, 1.18321596
1.12915898, 1.25499004, 1.28452326, 1.41421356, 1.43178211, 1.33229126, 1.29421791, 1.30384048
1.27475488, 1.37840488, 1.42302495, 1.40534693, 1.26491106, 1.19373364, 1.31339255, 1.33229126
1.21449578, 1.38744369, 1.36014705, 1.20415946, 1.08397417, 1.23490890, 1.36014705, 1.50831031
1.31339255, 1.40534693, 1.41421356, 1.26491106, 1.22474487, 1.36014705, 1.35092561, 1.31339255
1.30384048, 1.47478812, 1.61245155, 1.36930639, 1.31339255, 1.29421791, 1.23490890, 1.09544512
1.49164339, 1.52479507, 1.53297097, 1.26491106, 1.35092561, 1.33229126, 1.31339255, 1.28452326
1.61245155, 1.42302495, 1.40534693, 1.15108644, 1.44048603, 1.44913767, 1.43178211, 1.33229126
1.20415946, 1.50000000, 1.45773797, 1.18321596, 1.50000000, 1.50831031, 1.38744369, 1.21449578
1.19373364, 1.44048603, 1.47478812, 1.35092561, 1.51657509, 1.32287566, 1.32287566, 1.28452326
1.45773797, 1.36014705, 1.34164079, 1.50831031, 1.62018517, 1.27475488, 1.17260394, 1.39642400
1.43178211, 1.38744369, 1.42302495, 1.44048603, 1.59687194, 1.48323970, 1.10679718, 1.22474487
1.24498996, 1.44913767, 1.27475488, 1.26491106, 1.53297097, 1.36014705, 1.12915898, 1.28452326
1.25499004, 1.29421791, 1.23490890, 1.36014705, 1.54110350, 1.25499004, 1.20415946, 1.29421791